0,994303102680465
0,997619296124529
1,00095810601643
1,00218628008968
1,00597130674786
1,01227973406564
1,01662818178526
1,01831399872534
1,02193369647938
1,01971465126279
1,02066496461865
1,02441094293257
1,03072328973396
1,03211810855154
1,03642250072063
1,04875578663481
1,06584431320902
1,08672256809178
1,10680518611
1,12150294694218
1,13985406522063
1,15708991007614
1,16220776972106
1,16265727108207
1,15380984568515
1,13930099183666
1,12879591158012
1,12136861468475
1,114952424994
1,11095985976092
1,10858715940606
1,10739943109973
1,09950070486562
1,08964069766139
1,0877708858027
1,08444381136138
1,08444381136138
1,0755039609411
1,07781932159337
1,08136172023981
1,07742874010303
1,06505292356765
1,04976171105637
1,04976171105637
1,01450389846466
0,996676005530383
0,978926723508966
0,968180133033105
0,947925382084476
0,931249987919463
0,921166423617361
0,905769153813487
0,892769942370373
0,871444071642007
0,859249969450101
0,858787971504026
0,855015379978629
0,842421806460398
0,8324688402577
0,817861956567244
0,812145762779072
0,807622046504428
0,799465978012823
0,790348315617867
0,7849479600585
0,785384606419046
0,795517913060416
0,804950986085488
0,804950986085488
0,832723825766983
0,842787505839995
0,850846313972153
0,865579915432423
0,897470161063865
0,929247728003679
0,929247728003679
0,982091024294592
1,01856825986283
1,04263503202223
1,05314108266652
1,05896100966938
1,05476545260072
1,05476545260072
1,03460564951096
1,01699066367396
1,00151322008249
0,989038406736564
0,984242353285003
0,977004948810394
0,977004948810394
0,976498975933923
0,974505402755675
0,97597041963371
0,97702780922551
0,981217300092085
0,983678672128251
0,982704731849806
0,983143763648023
0,988025531046643
0,990179731159955
0,991862031736269
0,997241540450457
1,0009980319661
1,0009980319661
1,00472668920458
1,00335362161105
1,0008006794562
1,0008006794562
0,988661843099045
0,986980744493022
0,990927530145368
0,991345595642609
0,996659570766267
1,0056086167093
1,0056086167093
1,0136942635726
1,0127318845578
1,01599202260648
1,01437774522118
1,01485759592171
1,01620793639885
1,01620793639885
0,998925317528793
0,980183584845207
0,964692660902943
0,953252002358243
0,943262269997057
0,938438325091212
0,938438325091212
0,932220488940251
0,934263458559736
0,936566505914022
0,942931874527529
0,946062889030111
0,952465626676365
0,952465626676365
0,975979533596889
0,979915496356701
0,993831036947428
0,993831036947428
1,01513213425642
1,0204651586409
1,0204651586409
1,02389012105792
1,02618263968945
1,02654625321999
1,02654625321999
1,02196323808638
1,01786979029736
1,01786979029736
1,01612823501761
1,01119615307813
1,00356411852955
1,00356411852955
0,987717414041081
0,976312009554323
0,976312009554323
0,965778137048049
0,966259162957847
0,975836753765711
0,975836753765711
0,98241939109527
0,982715060432066
0,969934791622612
0,963365714565346
0,957218203963966
0,96331908524642
0,96331908524642
0,97716201829584
0,985258346830921
0,981339747488096
0,981339747488096
0,983673324839095
1,01013768368475
1,01013768368475
0,998046336599659
0,985299106870599
0,978306388612484
0,978306388612484
0,973512968583367
0,993615101535801
0,993615101535801
1,00089789189507
1,00089789189507
0,994657056477256
0,995141542696314
1,01299975320826
1,03371959931115
1,03922792976324
1,03771640634617
1,04669726759938
1,04670706981466
1,03999543268228
1,03259374877054
1,03007101696922
1,02767078386028
1,03011395486131
1,02878264468254
1,03766232465094
1,04084135678786
1,04203624697033
1,03729585461429
1,02283805658569
1,02027436996134
1,01836927487037
1,01963139418125
1,03098085821222
1,03008196761229
1,02704190761624
1,02506616371823
1,02411986114907
1,01303350882387
1,00345775197564
1,00167929498418
1,00443419396195
1,0042293263991
0,998986311217526
1,00114093912895
1,00507470866598
1,019875458083
1,02606996350151
1,02303020483268
1,01877182921398
1,01081849508208
1,0008407715516
0,991376749777803
0,981495033100015
0,987146584859614
0,988941434059672
0,987601625150546
0,994246478495147
0,999214096177591
1,00080197841531
1,00041204510941
1,00093043714336
1,00183464703513
0,998472077726764
0,998447234459588
1,00461057629312
0,997151798875176
0,993825764407424
0,993604211947594
0,992383136696709
0,99166827618917
0,992057891455937
0,998700555722285
1,00222534891111
0,998385276333741
0,993832083402423
0,99243707105287
0,986662794474384
0,987877021698551
0,987594400551157
0,983768534768215
0,98269310570493
0,97540183514283
0,981755667159604
0,980068313945513
0,98067733225562
0,989355861154115
0,995295775134206
0,992810601272972
0,995060304705197
1,00224668620056
1,00120577804965
1,00727099630636
1,01258740857271
1,00688765013779
1,01747653044186
1,010887659436
1,00670974962995
1,00550296369528
1,00781159945696
1,0060784561852
0,997592532049033
0,995612379392703
0,993761087988456
0,99814879151357
1,01139287124243
1,01187958769806
1,00331078933698
1,00021313728625
1,00076259422502
0,997579515627702
1,00170880499275
1,00545711992108
1,00544362845462
1,01785609002452
1,01691703693074
1,02023395846247
1,0202004018819
1,00407980260535
1,00592455979561
1,01802118347311
1,01882244773071
1,02640861259052
1,02449777452174
1,02412539271322
1,0242727224719
1,03586471607059
1,0252607717064
1,02058634127643
1,01863218582568
1,01498525112437
1,00759840214244
1,0018775024922
1,01113269158899
1,01195064108878
1,01180208539022
1,01489237360422
1,01971600458167
1,01589510285265
1,01112226758192
1,01295741766374
1,01406013628384
1,01571796774498
1,01713474525256
1,01775339350945
1,01266227835345
1,01249190120218
1,0278105078272
1,02504378443069
1,02447581718653
1,01464191220351
1,00634368383768
1,00051491243259
1,00237941419405
0,998560513939942
0,99221712341604
0,986579145329963
0,97952384350765
0,976696078624257
0,979476375416988
0,98294000834232
0,989823959095758
0,994890325613834
0,991030266944456
0,990797163903894
0,99754733722265
0,993680441590756
0,991859475933965
0,993884585854917
0,98996910052789
0,978942536617957
0,958658088162824
0,930380148111513
0,905244088630244
0,891388579689015
0,889858578651687
0,888846764071288
0,888075734383054
0,88987554747841
0,893546159971604
0,895580995778718
0,899894554934077
0,907289887522174
0,914657996193113
0,917750859438443
0,920779783661653
0,916750729478848
0,910756537171159
0,908119738801002
0,915103556981394
0,923700405975877
0,935407189410045
0,953937697127019
0,979741261762512
1,00014571438366
1,01552317058746
1,03335783734387
1,04589250881723
1,05725193780858
1,06343933536427
1,06899284843258
1,0726137515434
1,0750025767411
1,07355022705042
1,07490033956642
1,07578330996535
1,07374811292034
1,0755135099105
1,07681744506671
1,07872394985928
1,07997647196594
1,07901405922258
1,07589812714773
1,07873350277073
1,07414478539906
1,07202099792868
1,06927914970788
1,06817216777072
1,06884283222558
1,06620112549181
1,06359273220533
1,06314312300837
1,06198427954466
1,0602610716234
1,0572063611235
1,05203065069417
1,04869134162536
1,04545150054893
1,04353969258481
1,0412598186812
1,03796298585258
1,03390749102616
1,03353220075622
1,02843048379557
1,02400915034974
1,01999108329436
1,014692322825
1,01047955941721
1,00657944048148
0,999689316737955
0,996284286737475
0,996760583089039
0,997543287281309
0,996748042385838
0,993530920505245
0,995196593643688
0,995178124759583
0,99350062405617
0,995793045768045
0,997486190380599
1,0014125273832
1,0027901724688
1,00185782424454
1,00252836368853
1,00290055838054
1,00283163591901
1,00531964071135
1,0062318867935
1,00561201762907
1,00790128980967
1,00592074240469
1,00867914125355
1,01305009747791
1,01251624678323
1,01527819340317
1,01683974646942
1,01758806989862
1,01986042672515
1,02220387888131
1,02417413558437
1,0256354761805
1,02855072310509
1,03129948123714
1,03468523716152
1,03832606150477
1,03859689003963
1,0416771380807
1,04224996521948
1,04555182081043
1,04684842264771
1,04684034121732
1,04843877742098
1,05046660584714
1,04997132341793
1,04997989504561
1,0510196715571
1,0536727812751
1,05172214011116
1,05034014014509
1,04798080612194
1,04677028043406
1,04596974143615
1,04916897113859
1,05107645297571
1,05057782672204
1,04980933506994
1,04592333849092
1,04164248185258
1,03580784897586
1,03228254368656
1,03130108600738
1,02644802109021
1,02233514074397
1,01851793307727
1,01465966708054
1,00869764052465
1,00088633720318
0,993990834967808
0,993990834967808
0,979252061524509
0,9751518702233
0,970088769134042
0,96561030441892
0,960609733450583
0,953689860489247
0,953689860489247
0,942222171252619
0,93662101727433
0,929619820141546
0,926168526781168
0,923491705431078
0,920908203894395
0,920908203894395
0,908944585769672
0,907900754488066
0,90691848586298
0,90664602243654
0,908920023984509
0,912600925925456
0,912600925925456
0,910039894729896
0,909564538666718
0,910178213318688
0,912956324256533
0,916608515125187
0,919686392201168
0,923915997263821
0,929089651217793
0,933051713465015
0,936083591352824
0,936083591352824
0,943676899155638
0,946285480180268
0,950654411445085
0,954186826570143
0,960529510218192
0,966607567733669
0,966607567733669
0,977529508506009
0,984882434608314
0,991315232405918
0,997249231636706
1,0042730455409
1,00881650957942
1,00881650957942
1,0191007065055
1,02449436308845
1,02833409940544
1,03249155444488
1,03469741470635
1,03747762385509
1,03747762385509
1,04671041362929
1,04983451076824
1,04978544950861
1,0525164654294
1,05495485211453
1,05695319196263
1,05695319196263
1,05754429221664
1,05493238171932
1,0545693860529
1,05108917794828
1,04886751308256
1,04646824127634
1,04646824127634
1,03811441084304
1,03532419077311
1,03156212125107
1,03156212125107
1,02042475959769
1,01830453205316
1,01830453205316
1,01798805985139
1,01638766718216
1,010494067276
1,010494067276
0,998824954634194
0,995299904551387
0,992230336161922
0,986784626957676
0,987565542128724
0,991812497400592
0,991812497400592
0,996870046696158
0,997602455891123
0,992041944677744
0,985818893103596
0,981133227446711
0,9787457586115
0,9787457586115
0,982666952736277
0,986230931374595
0,987984999886132
0,989489049964678
0,990138444865161
0,990910561049785
0,990910561049785
0,995126152806768
0,994764982294813
0,996946593353927
0,996946593353927
0,994499502262319
0,994584546431323
0,994584546431323
0,988804540847179
0,988717502626509
0,989198311765644
0,989198311765644
0,988126899745169
0,989542788362383
0,989542788362383
0,995169256960845
0,997314413813417
0,999684800324582
0,999684800324582
0,998790979134273
1,0027249373582
1,0027249373582
1,01055864253392
1,01425285801914
1,01755085376604
1,01755085376604
1,00790966857154
0,992009848741433
0,996198218227678
1,0093253043494
1,01452654474883
1,01116164879805
1,01116164879805
1,01019771332151
1,01126999856616
1,01126999856616
1,01045009278044
1,01443792318702
1,01365850265264
1,01484052934439
1,00135292979049
1,0045796334786
1,00758220508304
1,0147012023251
1,01613308183525
1,01613308183525
1,01381780414431
1,0126151687586
1,0077781948425
1,00116267409448
0,993467608933477
0,992354024529553
0,988795277092281
0,991247204283573
0,994338735039524
1,00069644748045
1,00121552624797
1,0012205601165
1,00034679486666
0,991872844673147
0,986353288634453
0,986847232351593
0,990237880511547
0,988263057085511
0,989222133800089
0,992147902280703
0,993009979808864
0,992013492851786
0,988174164811042
0,984585765690323
0,982109535642537
0,977772120690706
0,975166549877507
0,971191736991208
0,969380724999213
0,965699233716171
0,96648214675699
0,960078923839077
0,957136792731321
0,960696101792861
0,96511041337248
0,966224916880123
0,964494504909178
0,962644326841435
0,962333434938223
0,96128730876882
0,960308726400005
0,959204988519138
0,958122257334626
0,958025813848458
0,956280236123282
0,956722807295823
0,955391364834328
0,957916562128456
0,959945764092951
0,962022899935339
0,960443048806123
0,960503550227692
0,962411705041039
0,963364536403536
0,962376023184285
0,964147255350551
0,961881791074142
0,965057060489171
0,964181855253458
0,965281855211212
0,964549537348912
0,970481267207152
0,988944007515087
1,00484321662636
1,01009376792454
1,01173837527298
1,0124239576383
1,00898605044867
1,00980309961893
1,01375761402813
1,02318376159906
1,02618190395271
1,02427483128309
1,0237423650509
1,0181618388056
1,01321972444283
1,01019134821082
1,00667248397878
1,00493144044756
1,00363572076725
1,0038174186574
1,00641012017964
1,00534239938441
1,00410792746597
1,00323770363758
1,00080137889593
0,995423236618475
0,992802125299901
0,988920719774846
0,982641877796789
0,981469337269382
0,990374166666316
0,999630796844515
1,00180120283417
0,994989919546927
0,988374569684995
0,984507714545701
0,980523681509019
0,97658943778847
0,972612301999106
0,974604345362773
0,976942751649246
0,980774133019423
0,982987110800544
0,985191463625218
0,986010248425441
0,985201045472446
0,985220061712103
0,982652593748167
0,980064921318991
0,976697839661786
0,973352669899251
0,967977138159781
0,96437443972764
0,964760353663022
0,949906611199227
0,953032260734126
0,960165412832601
0,966056483855887
0,968926798060617
0,973116616855349
0,973333416666663
0,973545119652911
0,974024322078253
0,976122384744864
0,977762680817794
0,97982187156646
0,980317178264259
0,983312544413016
0,985396630804064
0,990294728856011
0,992075465879486
0,995996631520408
1,00018542780826
1,00250217456123
1,00366773884588
1,00794112427264
1,01211535903769
1,01968674601566
1,02127082598104
1,01053289901913
0,998133468029201
0,996486517721138
1,00431303386942
1,02779060610613
1,06085023448176
1,10080699943269
1,12852120494034
1,13572852389997
1,13247444121269
1,12585941395895
1,12075855562204
1,11537221589925
1,11231311239237
1,10367341636917
1,10202798966269
1,09963068800393
1,09586558938585
1,09233394161309
1,08578895278963
1,07199709887667
1,04964402537241
1,03376139413309
1,03171775694712
1,04591752542923
1,07218302542057
1,09077566437834
1,10209779965301
1,10394605393561
1,10308281194115
1,10476867261884
1,1016534573086
1,10097326488884
1,10550472635806
1,11490525606439
1,11516690679019
1,11274646708044
1,10366383468881
1,0877776886846
1,07213704347905
1,05683220049353
1,03748230828289
1,03498690329878
1,04259816324411
1,02100798233902
0,997318008460692
0,978583006188029
0,971294038898623
0,956640214500729
0,942458158222422
0,916513382335468
0,895436898949334
0,871759295906846
0,853079574248499
0,830405352824751
0,82021122889168
0,816367870509368
0,811493955615197
0,809545885049143
0,800819130640621
0,806399386160481
0,811986816395439
0,814830467029799
0,818979816601118
0,817355644747132
0,8257280787281
0,824071113436213
0,837792152028175
0,86552068721666
0,892420500660983
0,927068082721005
0,958474125889687
0,989673749272961
1,02064584945024
1,0374128204336
1,04552563813615
1,0494422185142
1,04644551219832
1,03855286817764
1,03092488087154
1,01613338199274
0,998956986060962
0,985315528143143
0,978700204352691
0,976910302944953
0,976267632363175
0,975417274811145
0,973995651941014
0,974812874350765
0,973648360549126
0,977052557439977
0,978318179326133
0,977939231240878
0,978777610083108
0,980725858739332
0,977322904673783
0,975323961563541
0,974596316430552
0,979462071751632
0,980409939770094
0,983008697825202
0,985926716343563
0,982447001115073
0,981411177845453
0,977573281140601
0,977693244325642
0,975402921873827
0,976272712924007
0,97584507479415
0,976826156488451
0,978373957135001
0,991842129575065
1,00284201647119
1,00489825853168
1,01210360141638
1,01471329448273
1,0208353931952
1,02711593795443
1,02566568627404
1,0207234346286
1,01199164522243
1,00300862409054
0,992114499440463
0,978058505407524
0,96682676835098
0,95440321143634
0,943003144215331
0,940061237367013
0,940061237367013
0,930247547698998
0,929663390695794
0,933140080588118
0,943975428705642
0,957253331151164
0,968249683707668
0,984124819319176
1,00040530786277
1,01420598499516
1,01626979193519
1,01806956049182
1,01861944807666
1,02348835362206
1,0195858276771
1,0202640540566
1,01622474876378
1,00997212337767
1,0099797423711
1,00668998206995
1,00130405472064
0,995508402777194
0,984272579116172
0,979788048508452
0,97270547443715
0,968254233143341
0,963672615570246
0,968056945639047
0,973717222811633
0,971948357681621
0,971475980145675
0,986522990102106
0,986522990102106
0,968923959864756
0,973298484535962
0,966660116069759
0,947027111544332
0,934964967258132
0,940363610525205
0,940363610525205
0,95049743292657
0,971707188406055
0,989684358773038
1,00576716987581
1,01494408220355
1,02007456100032
1,02007456100032
1,01158407460774
1,00720354447351
0,98884855261056
0,959356060073631
0,972815552918435
1,00406291635534
1,00406291635534
1,01674015362825
1,01139055759879
1,02240017116587
1,02136829792196
1,03615279278686
1,05415639731493
1,05415639731493
1,03965742434708
1,04295598181323
1,04723627706454
1,04723627706454
1,04654780110609
1,04529032330736
1,0413938880174
1,04192568353026
1,0444148122274
1,03198877416375
1,03198877416375
1,01846455510243
1,0271718113344
1,02827454505108
1,03138638249688
1,03008886024459
1,03998782204409
1,03998782204409
1,0274105167848
1,01338318517726
1,01593399884048
1,01330190466613
1,00841212805083
1,00052872522482
1,00052872522482
1,01199543971305
1,01020953767028
1,0066963246183
1,00543496060163
1,01335767130861
1,01674010936915
1,01674010936915
1,01123295535697
1,01031373840011
1,00131139012797
0,994888551547358
0,983451015556952
0,982526254102149
0,982526254102149
0,993399763438667
0,991686069277975
0,997221835902123
0,997221835902123
0,995899282056173
0,985338520509576
0,98892254499531
0,993345247132134
0,996458955501931
0,993844263453787
0,993844263453787
0,992274442883621
0,986766122239713
0,986766122239713
0,9775770915892
0,981747187416394
0,983474010841161
0,983474010841161
0,97405082516263
0,980073874766591
0,995939501174645
0,99551329976048
0,992212275674918
0,980415957642469
0,980415957642469
0,980798455341361
0,97248663744033
0,984626944583582
0,996169292841332
0,982139241655683
0,99402842011685
0,99402842011685
1,00441702992333
0,988116475927813
0,983845938142756
0,983845938142756
1,01582309483492
1,01217665454208
1,01217665454208
1,00202345780925
0,9988907998375
1,0123919497902
1,0123919497902
1,00345440354806
1,00354129959858
1,00354129959858
1,00812335058762
1,00753153796792
1,02618445710311
1,02618445710311
1,02008112422493
1,01122923217241
1,00674376084483
1,00659070629526
1,00118210631233
1,00118210631233
0,990306689869356
0,998673890717085
1,01941726981644
1,01907602267937
1,01612444119803
1,0119499048866
1,02343957808949
1,02343957808949
1,01257688103176
1,01530802222774
1,00654407752468
1,01143366564496
1,01747339031544
1,01622645606184
1,01931622178792
1,01654860188778
1,00449076650808
1,00539972150384
1,01560802478121
1,01807320463707
1,01508896654431
1,00449491785673
1,00282118545631
1,01298374123181
1,01831721973067
1,02037472528478
1,02028506800796
1,01870750463516
1,01929809673128
1,02532414874517
1,02506404190177
1,01780452936701
1,01942239528078
1,02061164994331
1,03407716346509
1,03051310520536
1,02445672431782
1,01535917290385
1,01692782929764
1,01561861936457
1,01075083972263
1,01179437634334
1,00526110538506
0,997450214296433
0,991362300069959
0,984283846255744
0,981945971018772
0,97907208110537
0,969723862756816
0,968608971670199
0,966605591748775
0,964517112341715
0,967062076601084
0,973608304196303
0,975487683161607
0,980320218092027
0,982377610697638
0,975091123946885
0,959108742531315
0,937779019812237
0,910435906585411
0,88494060252652
0,867917426947979
0,864478166294557
0,867634364234151
0,870872401675469
0,877040101705732
0,886496869706825
0,897211663990165
0,907925035451716
0,920700222656647
0,938145020772375
0,953611126193481
0,963615514611507
0,973040158472403
0,981119406596363
0,984177768495103
0,991027779630824
0,998526554479149
1,00816670744476
1,01456348741713
1,02154484483061
1,02646370125787
1,03027275029479
1,03823306150402
1,04579084428962
1,05442458715643
1,06417954782076
1,07364913263133
1,0785773314881
1,0832394979874
1,08620079635397
1,08531898076096
1,08207106513389
1,07726107327797
1,07888360818023
1,07992458069997
1,08032518252608
1,07662563131295
1,07741353249344
1,07729886753862
1,07758305016365
1,07730759302996
1,07600113847523
1,0781262866659
1,07841280593287
1,07696347663233
1,07528133062934
1,07444566637871
1,07150231450987
1,06958095065311
1,06248531754561
1,06028743272756
1,05111416601623
1,05343409380938
1,04982120858744
1,04434868698151
1,03868048022479
1,02869496936653
1,02141817097602
1,01057347085702
1,02014314681813
1,01802430717542
1,01923254951949
1,02051343940195
1,01181554148965
1,00818359935083
1,00165677255235
1,00060438735796
0,998933576370321
0,996671651046622
0,993675389651973
0,992098916439283
0,988068423744024
0,980886349176091
0,984040151619841
0,983766410282441
0,980034417762968
0,97908945965116
0,980703854382147
0,980769641659039
0,980862217643233
0,983221816275453
0,984858126838582
0,984499156932092
0,98416952299896
0,987051011852984
0,988409282635488
0,987835745455691
0,989489696762933
0,99299259312444
0,992119836511699
0,99376999854091
0,993708407934642
0,995418399468284
0,995142432016644
0,996973234344834
0,996858635915845
0,998811463690721
0,998356304131947
1,00015905235117
1,00179164999515
1,00315658797617
1,00504974006265
1,00568914680432
1,00939957400427
1,01019757473476
1,01192644495536
1,01216088642073
1,01401680459448
1,01461140344469
1,01323667521463
1,01553808889672
1,01562320769073
1,01912341745247
1,01617306596859
1,01364035535292
1,01572883192317
1,01886142826196
1,01889570614465
1,01847651912059
1,01893191627311
1,01913874914067
1,01626172317961
1,01548005396463
1,01105433088435
1,01198014308582
1,00936350736491
1,01206824374644
1,00814922506542
1,00595169367122
1,00398331659445
1,00086315248389
0,999241812575915
0,995192031720512
0,993608967350839
0,989606325767979
0,989094242223662
0,985774522900648
0,983796462689311
0,983148925646568
0,981469235381324
0,981117531185739
0,981859877986671
0,982527480531715
0,981981104706195
0,980116416554687
0,975970271063622
0,97182408902023
0,970317819067547
0,969780165810788
0,97028856532477
0,968579155257845
0,968504842527904
0,969289172538309
0,970042653701372
0,974054413264475
0,972925588110417
0,972682908249138
0,973096629323111
0,973073758766518
0,975163340164098
0,977163410080423
0,977346576194954
0,977339787382055
0,979007528060944
0,981499062658748
0,978980617785664
0,980461391386729
0,983972250624986
0,985135452615527
0,987137062418386
0,988817202520264
0,990228195922536
0,994230290224554
0,996526136134923
0,99916885960282
1,00004030918758
1,00209132318367
1,00584245784318
1,00883791066752
1,01131194495072
1,01236294874911
1,0154089865665
1,01829550229783
1,0188115821878
1,01800755891103
1,01981267887784
1,01861815220425
1,02246260567319
1,02397974101053
1,02452561705406
1,02480187841358
1,02630633828307
1,02698369023076
1,0291838562667
1,02718170739164
1,02578254030764
1,02570331480404
1,02617905844935
1,02652291742562
1,0280207682727
1,02907073614985
1,02728881041312
1,02445375688705
1,02363529638246
1,01992565415328
1,01930137349069
1,01486368542775
1,01271878623831
1,01385698202459
1,01388956992367
1,01243894630738
1,0101499195664
1,00721924624185
1,00662162702775
1,00261659671083
1,00029670098426
1,0011733666054
1,00015847244324
1,00004290907941
0,997933770347512
0,997365900760599
0,994771169666673
0,991815935544494
0,990483306270227
0,991350245876804
0,990007287851963
0,992502906796751
0,992502906796751
0,988316067864932
0,986935631133054
0,982697720563145
0,98190034626738
0,983040680745207
0,984726693047365
0,984726693047365
0,983372447244685
0,98356149782309
0,984471477494396
0,982151139081964
0,984454011114791
0,985930874858882
0,987776346143194
0,98814293500485
0,992400529020415
0,992911823879643
0,997298365585746
0,99839211234865
0,996755421354707
0,997092844222643
0,997502932326517
1,00229435297222
1,00629611944
1,01084122393183
1,01103555822731
1,01019785190823
1,01311642963679
1,01386664803612
1,00999379206013
1,01045382873242
1,01045382873242
1,02064623156116
1,02363572133841
1,02337916238313
1,0231767686964
1,02245853705664
1,01770915786388
1,01770915786388
1,01776533149838
1,02062946263568
1,0217389588344
1,02366377292547
1,02277059500164
1,019940787497
1,019940787497
1,01791130261924
1,01597455184665
1,01342147697787
1,00746754786445
1,00929581887572
1,00755879729175
1,00755879729175
1,00761565093045
1,00760788008034
0,993245130871529
0,993571789052004
0,995228677239558
0,998661113691727
0,998661113691727
0,999328484533489
0,998710788967457
0,996475092513606
0,996475092513606
0,988197768667791
0,984372089202046
0,984372089202046
0,977329529892554
0,974113822918041
0,972037715317672
0,972037715317672
0,973735477427006
0,970984459195923
0,967993951427384
0,966665019538827
0,967002569800101
0,968089091974494
0,968089091974494
0,974168583973021
0,976475340190422
0,977535093999187
0,972764195475964
0,971535676133409
0,970521581418981
0,970521581418981
0,967160410686873
0,967202093670191
0,965286843378692
0,965218778308835
0,964900808373586
0,964052218502712
0,964052218502712
0,965361227727735
0,968132062272498
0,967669747382856
0,968982667543646
0,976290679050046
0,988927216735387
0,988927216735387
0,957672893006793
0,947967557461752
0,957240440014942
0,957240440014942
0,969173204334499
0,971686765372463
0,971686765372463
0,977662748599945
0,983202079940843
0,985487072467214
0,985487072467214
0,990935446938901
0,995012251180859
0,995012251180859
0,995936519061331
0,999815973067044
1,00108242417895
1,00108242417895
1,00290802170488
1,00509776638892
1,00509776638892
1,00144855584298
1,00188937513081
1,00256645166293
1,00256645166293
1,00233151202584
1,00081211523442
1,00139557618356
0,999558867701147
1,00178409350518
1,00314132105103
1,00314132105103
1,01039907957203
1,01437785859117
1,01605925024085
1,01605925024085
1,00930377984034
1,0127911433262
1,0127911433262
1,01745024939797
1,01745024939797
1,01460701751959
1,01460701751959
1,01252996992682
1,01013829746228
1,00873804329965
1,006661517095
1,0069546464464
1,01114630494306
1,01215669735471
1,01461189131608
1,01415176872103
1,01293591603813
1,00956320753086
1,01003925171253
1,01045831680481
1,00842450386729
1,00925333291498
1,00925333291498
1,00626466697385
1,00618341270367
1,00309406338588
1,00261863637178
1,00593037532426
1,00543588060105
1,0058916343225
1,00513508544872
1,00252409946096
1,00224304936477
0,999896139606509
0,999973694654014
0,998569281522319
0,999332742383637
0,998131023463353
0,998765983601765
0,998039347921714
0,994840705841895
0,996262349986187
0,99651463611931
0,996704414558298
0,99631371063536
0,998136092925208
0,998932720457189
1,00145732310468
1,00335481261616
1,00693283787947
1,00825109471798
1,0125373178308
1,01741428140163
1,02130546361018
1,0225608099277
1,02599509745417
1,02739178505573
1,02562809536401
1,02466079265287
1,0248616199273
1,02711643935826
1,03488685855025
1,04007296859403
1,04138043480757
1,04304314867603
1,0407361144882
1,03970792533288
1,03948195270529
1,04206328982457
1,04558015474664
1,04774217248329
1,05147658556907
1,05961170246463
1,0642837403625
1,06965280348345
1,07440642682367
1,07983006533436
1,08453563334729
1,09039628117488
1,09117750618311
1,09494430908608
1,09269275645078
1,09661827907436
1,09628504504987
1,09751970369556
1,09740608254192
1,09838829655091
1,10188867858781
1,10017523604197
1,09875170534566
1,09975145373853
1,10203251313199
1,09697914291932
1,09588463808925
1,08981880145279
1,08210018482579
1,07756786793222
1,07127099746049
1,06391448434543
1,04893341542731
1,03462482572187
1,01892255839195
1,00496858657373
0,99605392424306
0,980977339187812
0,962603682727217
0,933171372256993
0,918038365211389
0,903743442576487
0,893626459993212
0,87467247584453
0,860663656720789
0,838173526186553
0,818413837859551
0,816805907177464
0,817507902102481
0,812172598651297
0,79933753821524
0,781983925665995
0,765416814552699
0,75415365808302
0,744164934675103
0,73821195465801
0,742242453649749
0,751134754887563
0,765488980978825
0,785003598717866
0,808815269390978
0,828404134465781
0,855823001560486
0,883099841467543
0,909158715516713
0,935762982811353
0,960675668475058
0,981113683525003
1,00466031075185
1,02903711789226
1,05025963932734
1,06300412981324
1,07197237371119
1,07228372178263
1,06919235406918
1,06462914669851
1,05699263952026
1,05262724171475
1,05091174225051
1,04816554990135
1,04622806309141
1,03853058693521
1,02725964585396
1,01153135888118
0,997754959897469
0,986554666503585
0,979060473106743
0,976469794719734
0,975600579130619
0,974987712743089
0,977838008056549
0,979916088244295
0,983568197940539
0,985441327527925
0,986844288629164
0,987493524029399
0,990716594188267
0,992719748972488
0,990335200828487
0,989898060408242
0,986947070515942
0,988787914570157
0,987071983190689
0,98683899902669
0,984794191696925
0,984534560084104
0,98133086163638
0,976654918586908
0,974622475628384
0,976800685912945
0,97777999059093
0,97864672890681
0,984442593552311
0,989210907744147
0,992493476049087
0,996469733609606
1,0011102087183
1,0014726157015
1,00008714120321
0,997585956196257
0,987042228073349
0,975145799355153
0,966879459912144
0,958393556948293
0,949499789362799
0,945978974396366
0,942247876092061
0,943661364049626
0,952082107803733
0,965334584483535
0,976720681669022
0,985583918294125
0,989483041795058
0,996518248703956
1,00429790898916
1,01896157925606
1,02414779206909
1,02780187779552
1,02787205915912
1,03203619122587
1,03149500241155
1,0299201279711
1,0297991503201
1,02618469097916
1,01673167059948
1,01615241474889
1,00859370412471
0,997995721433714
0,991062238207066
0,983469760592566
0,981881912451798
0,988088381674433
0,986112873863839
0,980314220033556
0,977438995538852
0,979860408425608
0,983993506076133
0,987032289238807
0,975637683774053
0,967798253769865
0,958541600557847
0,960208326354234
0,972062570002569
0,979260179931769
0,982701302532972
0,989797287327057
0,985517681221397
0,990405154469624
0,986153847023881
0,976865998998839
0,961987666241101
0,964435487733628
0,98083806002826
0,986665399210898
0,98031910110943
0,983371735408335
1,0174832627616
1,03333112311592
1,04268057428917
1,05551129790259
1,06836917776581
1,06383245861367
1,05734912398886
1,06371277138145
1,04061447712397
1,01792543440077
1,01860132043896
1,02124012357525
1,03971571595316
1,03899490374111
1,04174914926771
1,04175710220761
1,03714287347501
1,03785919083467
1,0384704665998
1,03357257123049
1,03432108167628
1,04109670540253
1,03474673712943
1,0336058533116
1,03294381744604
1,03059525032866
1,02889122845906
1,03362036551144
1,03949627223959
1,02241321392087
1,00867896280234
1,01571966604964
1,01733695991053
1,01608614792251
1,01179595769108
1,00518793267727
0,999996164992646
0,994976924355535
0,996256884543339
0,993493719154782
0,996218871533761
0,998101482816252
1,00138020751361
0,995765604949277
0,991466802268235
1,00552048711103
1,00211557217718
0,996505960845192
0,995838912676142
1,00116764829873
1,00575175366489
0,997626678672939
0,998177524291145
1,00106069246575
1,00355880246252
0,997905611768969
0,998402263619229
1,00746183054248
1,00869236638333
1,00709075062777
1,00734762619465
1,00709180316394
1,00488702350065
1,0006499787638
0,999887763701507
1,00284998379618
1,00284998379618
1,00415254817184
1,00272241423038
1,00491500138071
1,00913545176057
1,00967528938763
1,0036409168622
1,0036409168622
1,00444729578012
1,0078606748951
1,01492841619496
1,0077065545088
1,00673622165888
1,00991331311158
1,00991331311158
1,01214098820273
1,01816530583201
1,02182230842745
1,01642799056303
1,00787751736012
1,00809732665056
1,01212970512677
1,01695841114571
1,01942367051192
1,01977248442974
1,01654325535119
1,00993057187116
1,01470611016195
1,01723768117387
1,01423650594918
1,00975637160654
1,01478500186
1,01478500186
1,02358791024513
1,02959557594232
1,02691861897621
1,01521621834957
1,01139774075287
1,01103334762015
1,01103334762015
1,02363900375083
1,02501678035045
1,0182022196008
1,01435850171426
1,01396866322387
1,02046131724823
1,02046131724823
1,01872041306729
1,01972116286758
1,01574782795731
1,01588342835189
1,02131423665785
1,02265820780943
1,02265820780943
1,02002730845796
1,02063632602411
1,01633585492198
1,01396017180163
1,01114723952548
1,01210984087697
1,01210984087697
1,01041744343613
1,01137759516414
1,01863815950513
1,01863815950513
1,01847579254492
1,0189428394174
1,0189428394174
1,01551284580748
1,01139089871325
1,00412077958779
1,00412077958779
1,00594727993071
0,998151696887803
0,998151696887803
0,990024024961011
0,991942221099596
0,98841618764567
0,98841618764567
0,978288556613027
0,968762127666023
0,968448258814068
0,973546126282674
0,982439748788698
0,985527680991255
0,985527680991255
0,987149421313714
0,982951204282288
0,972874400937757
0,960036817002348
0,941135771289138
0,918697627078681
0,918697627078681
0,87947176191166
0,874037470592651
0,877001220067566
0,873015125871253
0,883848646545323
0,892899087243346
0,892899087243346
0,903538897889847
0,916883378625657
0,925475953226231
0,925475953226231
0,935954854680502
0,932376302787667
0,932376302787667
0,923332778579857
0,927926467991942
0,94035281144898
0,94035281144898
0,976029656311733
0,989549523773318
0,989549523773318
1,00117386102515
1,00570073580564
1,00657026083627
1,00657026083627
1,01137728865147
1,01401501468174
1,01401501468174
1,02706805032578
1,02781704111189
1,02693254890475
1,02693254890475
1,02785805926694
1,02629199548666
1,02629199548666
1,02565868591847
1,02696801313381
1,02696801313381
1,02361517182973
1,02202174634398
1,02063976504935
1,01949331042435
1,02245350505536
1,02869171280807
1,02869171280807
1,03151980107025
1,03376442674335
1,03258963775548
1,03083056803725
1,03321341938633
1,03398953089478
1,0282214839226
1,0282214839226
1,02612111370929
1,02267294869865
1,01910620153152
1,01409049398956
1,0094521187258
1,00540500794456
1,00170204152732
0,9971119194955
0,994002625751059
0,988989519661356
0,985529289265418
0,981874844366633
0,980790502604914
0,974650096188371
0,974160838876209
0,972295047812134
0,970059328082566
0,969225489759736
0,967987195163242
0,965397177331693
0,966172562226852
0,963487612790118
0,96504445493459
0,961540779166438
0,96214344564623
0,960461352684219
0,961282689951296
0,960906145260816
0,964986518040537
0,965513883898103
0,964319013604938
0,965575108419847
0,965602288729682
0,968117725279318
0,969677131833065
0,971645063796446
0,975349019582221
0,975597842351038
0,974598732812638
0,975142343455559
0,977186072352651
0,98019890328443
0,980731813494393
0,983398052672467
0,985655791846221
0,990129935917504
0,994015422415568
0,996535528719373
0,99967516724184
1,00399622011241
1,00915353638582
1,0159395454455
1,01843317404727
1,02346117659636
1,02546105240521
1,03126426293167
1,03586039117248
1,03962836629249
1,04396926199961
1,05011539365919
1,05486930470082
1,06107374861505
1,06467639214928
1,06653495957704
1,06927692390699
1,0669408840231
1,06767381254763
1,07040299887472
1,0702598796554
1,07385940420522
1,07460845427532
1,07498430221097
1,07372079238506
1,07309228400916
1,07450454629099
1,07318221192862
1,06826600619883
1,06819017501567
1,0656848173827
1,06540479630983
1,06403641854967
1,06123679261511
1,05826230207827
1,05440214813893
1,05023544027042
1,04562708457652
1,04417085287801
1,04120641565446
1,03602166483139
1,03210505763706
1,02875635113471
1,02568566334916
1,02221057517519
1,02110804521363
1,0166617972561
1,01525323441987
1,01166624437114
1,00820931358523
1,00684547473781
1,00315444972347
1,0034276854861
1,00061190278749
0,999442789758373
0,999148142169118
0,997522596235293
0,99391353245642
0,991607674435812
0,990762029954721
0,991531371162809
0,990362746674167
0,990503457843535
0,991658782041484
0,992017439362837
0,99214478782081
0,993074951854088
0,993143826442072
0,995184475361227
0,996582083924852
0,998275322744182
0,999810226993103
1,00127539168802
1,00057556935996
1,00211295770487
1,002650741784
1,00434508013929
1,00529853774886
1,00574180583289
1,00792453090497
1,01235358447531
1,01374948581985
1,01493851045273
1,01436477166747
1,01577941010832
1,01277653013881
1,0110397915018
1,01120461826477
1,01154992462063
1,00947945991981
1,00866717008139
1,00726406170378
1,00876921543037
1,00899329036421
1,0076188713993
1,00723275363741
1,00593463505339
1,0072414308397
1,00516643397997
1,00426128074321
1,00488810819912
1,0055363593625
1,00496036737774
1,00525866323051
1,00541309917864
1,00418391741752
1,00239497704248
1,00137384128007
1,00065588990422
0,998910010961948
1,00051485246347
1,00010158484026
0,997841440310033
0,997928985449365
0,996067999686768
0,996148166690076
0,996731142284618
0,99598986440626
0,995629554603518
0,996744887120069
0,996517139842562
0,996502493724928
0,993887262218407
0,993764267822103
0,990804945486245
0,987911180218141
0,985322591844925
0,984692261572112
0,986333184071184
0,984875388056784
0,986228421817177
0,985750830585499
0,986068258286413
0,990421576905511
0,991012542806598
0,994827105581669
0,99930490842385
1,00088285528327
0,999899474947357
0,999278669841401
0,999804230837217
0,99799194385526
0,998138858075368
0,999365923973797
0,998921743681656
1,00136168290983
1,00225875401515
1,00272713137723
1,00181105004886
1,00284806426497
0,999898019800019
1,00143411665471
1,00246448814908
1,00250768076858
1,00386603189868
1,0017920592618
1,00130649153993
0,997173069231214
0,991510463888304
0,989549579354163
0,992298886424851
1,00050147925928
1,00245560998979
0,996335540869641
0,993999557343966
0,992049121767667
0,992327335106718
0,987073264757992
0,983613994410409
0,978917141539569
0,977820254443525
0,975826675183662
0,973895980071794
0,970630176740863
0,969362254268238
0,968069765047954
0,968929625927497
0,969798582180857
0,966923787069074
0,965537539404864
0,966867028086076
0,965470175613934
0,962126717225959
0,959204946817936
0,95756930819654
0,954646782846933
0,953070684681886
0,949556038367405
0,949825757705065
0,9499444404806
0,948910986341712
0,948232281669423
0,946406920938346
0,945304469470022
0,940812096010675
0,939070721511431
0,940585992878907
0,948552607924305
0,953598369335854
0,957576299832029
0,960072460806995
0,9628399140044
0,964525043739145
0,964591452377637
0,960113347475182
0,956069160678243
0,952775765854695
0,952991348334286
0,955059479823116
0,961138127430184
0,968233303496631
0,977628763897626
0,983233293781288
0,990185937084546
0,99520159264342
0,996292818402301
0,995682504616808
0,998374203392696
1,00101818664798
1,00101818664798
1,00761982414004
1,01264764355624
1,01673522610363
1,02190501515552
1,02110130741274
1,02240347221633
1,02240347221633
1,02280776786256
1,02503797978416
1,02510321431551
1,02778576561461
1,0307921856514
1,03255989656775
1,03474167790807
1,0379855153132
1,03816344088973
1,03913993764074
1,03954369797522
1,03835345138349
1,03885684769366
1,03907565653325
1,04145584639964
1,04408875101689
1,04693622537383
1,04641353680082
1,04912979177984
1,04954673550062
1,05001315229858
1,04776245399422
1,04380286931968
1,0413330831199
1,0413330831199
1,03311035712551
1,03079665307955
1,02738633921228
1,02715811830506
1,02523087643711
1,02147147292521
1,02147147292521
1,01282093185321
1,0120555913585
1,00785868553086
1,00713030437973
1,00370077712434
1,00385352517187
1,00385352517187
1,00152054896542
1,00417782289792
1,00722133615209
1,01008312529217
1,01361141962786
1,01338555841299
1,01338555841299
1,0172721268176
1,01867973377308
1,02159655931292
1,02405871413704
1,02192777142027
1,01996472978236
1,01996472978236
1,01675683425291
1,02010596998547
1,00398539332004
1,00398539332004
0,99917390378252
0,998745963696475
0,993595999388081
0,992153017432291
0,991019217775316
0,98842231358868
0,98842231358868
0,981004393466207
0,977983916023162
0,975832393395505
0,974056492201556
0,97682553713547
0,963490145253183
0,963490145253183
0,976175870424997
0,979220342925942
0,980074762454375
0,979313121529575
0,978505314242084
0,974729259846035
0,974729259846035
0,972676163992929
0,974497762952794
0,979221619450878
0,979366866909434
0,979869792370395
0,981707522635943
0,981707522635943
0,988286441270951
0,993008665621806
0,998546398521371
0,998546398521371
1,00153057367212
1,00018748742423
1,00018748742423
1,00558637620047
1,01281762425424
1,01664856268034
1,01664856268034
1,03759734483084
1,01653632005945
1,01653632005945
0,988743677603048
0,993607165835674
1,0016284840199
1,0016284840199
1,01622387297288
1,0249903511741
1,0249903511741
1,04927970055653
1,05857102265271
1,06481313384086
1,06481313384086
1,07071552711259
1,07152722317261
1,07447549064648
1,07743169621095
1,08197723173827
1,08277961284834
1,08277961284834
1,08759604633338
1,09088949944529
1,09211944859525
1,09404311615219
1,09605499862005
1,09833206272056
1,09833206272056
1,09663082666867
1,09156516067526
1,09311674124953
1,09311674124953
1,08009687065559
1,07530902535039
1,07530902535039
1,07116339089795
1,07260890356178
1,0764071999016
1,0764071999016
1,06968981017863
1,06584176123851
1,06584176123851
1,06444504320326
1,05050390765575
1,05050390765575
1,03752773938821
1,02647475370805
1,02128664928119
1,01126497516724
0,992428445783372
0,965049563494021
0,941940709386743
0,921790941591422
0,891909715161798
0,862378165308004
0,841419116730776
0,82119951899645
0,801482033485467
0,787655089490317
0,774096053471402
0,761119602953439
0,744256924724251
0,72997732156554
0,728572707421847
0,730256865767108
0,733918639904997
0,743501075991151
0,757386440332807
0,773657824881258
0,791684091036317
0,812073962148769
0,836889467014611
0,862496498543617
0,891716502034139
0,919745954054705
0,944304707178779
0,966157808021029
0,986173620616573
1,00650144063484
1,02336095782476
1,03402750930524
1,03820021672123
1,03978725708676
1,0422614883032
1,03841549969172
1,03785849709871
1,04096019616506
1,04489917695441
1,04872236554772
1,05148927241318
1,04708659145268
1,03722680258466
1,02111284880761
1,00346897311277
0,985864437942662
0,970808941038349
0,963708695612943
0,961458907078196
0,964973828660653
0,974715096835993
0,984048073012696
0,993252908377318
0,998662866036382
0,997930879369909
0,99611807533043
0,992230361357684
0,988337194483745
0,985071642064677
0,982893814203752
0,981459825973534
0,985002319794223
0,98669047324883
0,989071402882522
0,98750180253
0,987220122363802
0,984457632404767
0,981259792307827
0,976504096253569
0,977160652093605
0,972157857551951
0,966587202480976
0,966909308053242
0,971822175091719
0,973272387361318
0,977556156954678
0,986455052194473
0,996465473561427
1,00494018229942
1,01108754319297
1,01261737591254
1,01036635434876
1,00201401187808
0,992733589640242
0,982995849431726
0,970223618553991
0,961358960014416
0,954622527494507
0,953072379203175
0,951994774145321
0,961962166615715
0,971840990080167
0,985678015378247
0,998259375112501
1,00518323205274
1,01541572274611
1,02169814035262
1,02594887299514
1,0286093573364
1,02658701043799
1,03055139609822
1,03174482794924
1,02871055695954
1,02428924137667
1,01560292929865
1,00351405072376
0,999582092676735
0,999834996386904
0,9943485757017
0,989280197921701
0,994245392244792
0,986531322361333
0,968204823371584
0,964869286483926
0,974374619948611
0,973912824640892
0,983609312684665
0,988818173376683
0,985508564143407
0,979012630153462
0,97307278761663
0,9862314180759
0,993858687138167
0,985353124519327
0,969096336800424
0,964836509466759
0,971306836174852
0,986835558743198
1,00300239780371
1,00421252730684
1,00705936766409
0,992357758069135
1,00438583223779
1,00467376794659
1,01854162899707
1,01475488173253
1,00700675270824
1,01466012536218
1,03735693471437
1,04261663136553
1,04639429470922
1,05233366381581
1,04390760127513
1,03166012814298
1,01753874127721
1,01360959940206
1,03702265163303
1,03952655088747
1,03759890612895
1,03838139910151
1,04226117648121
1,04129936137501
1,02848051026745
1,02618417937522
1,0325281303674
1,03408101230029
1,02814930822328
1,01886813180117
1,01856374861861
1,0274619506337
1,03200496607332
1,03153491942832
1,02740510510704
1,02918784971452
1,03185422904594
1,0253620531305
1,02091732770093
1,01959495879491
1,01461051640519
1,01595895094241
1,01141200803629
1,01030906657319
1,01370636280927
1,01733496941764
1,0097295330929
1,01078351787116
1,00952436325232
1,00880053033293
1,00560078560033
1,00493490833984
1,00316019159454
0,997312348264073
0,996649918476894
0,996916932346923
1,00000424499099
0,997668948098516
0,99574378732684
0,995872165491134
0,998463419460122
0,995779925485546
0,996197415174322
1,00108020158227
1,00023254796072
0,997005411219016
0,997910862752781
1,00176799709314
0,998570162782766
0,999111270079564
1,00736029800663
1,01175626017337
1,00881100806841
1,00608415154996
1,00476604739611
1,00871463754622
1,01460068007074
1,01209924908578
1,01212435006772
1,00612404801794
1,00324978943432
1,00613617368625
1,00930901610954
1,00709519907504
1,00220042905598
1,00472973480434
1,00449816326363
1,00402494490924
1,0058450874762
1,00375876583968
1,00599237571664
1,01764075193557
1,02354152333943
1,0201795822305
1,01621703390565
1,01449706258816
1,01543940242636
1,01608803260347
1,01689217717514
1,01512525828097
1,02221660131305
1,02783734608157
1,02780944245517
1,02768993864881
1,02125632923375
1,02024349054527
1,02196191709868
1,02465782093341
1,02426966175905
1,02206636281604
1,02362239619891
1,02483572829991
1,02581999395605
1,02473130624569
1,01649441710223
1,02042880202393
1,019632723092
1,02127064483417
1,02369044637527
1,02512938207818
1,02290131000014
1,0230082062232
1,02470093685914
1,02846064581976
1,02804979451386
1,0246061243229
1,02385384210834
1,0213613366483
1,02077151703993
1,01687105377231
1,01423808841909
1,0176387620369
1,02016918694891
1,02041929617192
1,02022218658486
1,01710072755849
1,01865366538387
1,01876629802914
1,01585003322341
1,01201990593071
1,0099777274772
1,00535650890617
1,00694509780822
1,00698850539616
1,00393046073919
1,0039170184831
1,00444446835054
1,00156400694114
1,00014045513618
0,99404431490754
0,985344660512249
0,976365151979525
0,971021673290561
0,97368616093688
0,969880801954549
0,969382839749085
0,966846192524954
0,974003665290845
0,97926109388661
0,977533677169232
0,973205697681636
0,966395198663569
0,958994541173202
0,942096921765484
0,942096921765484
0,920270699305373
0,91862742175487
0,91272589532674
0,912439165095405
0,912030536769466
0,90610291909915
0,90610291909915
0,915110588945402
0,921172084900536
0,927320187421799
0,930459397287168
0,922869741621211
0,918890929327306
0,91076454696041
0,898984593861319
0,898735033255075
0,898065966396678
0,899570375234756
0,907120460578417
0,919648307778577
0,93560468682024
0,956057247239934
0,976901110655526
0,997243230109886
0,998114011523734
0,993053699454365
0,992335754671774
0,994117311990894
0,996375536632649
0,999408655155637
1,00376245695882
1,00376245695882
1,00593257229299
1,00897271519105
1,01141284844518
1,01278229151185
1,01275913720884
1,01380629806684
1,01380629806684
1,02183628336441
1,02675199050209
1,03078970697228
1,03371848198627
1,03320401180019
1,03510688337002
1,03510688337002
1,03947842690457
1,03763094113466
1,04083557779315
1,04018460380838
1,04034135743995
1,04096834245812
1,04096834245812
1,02715014481818
1,02372414741472
1,02120202212882
1,01532042725437
1,01000208910675
1,00341753024352
1,00341753024352
0,98999035853891
0,987297062691873
0,979551285027997
0,979551285027997
0,967926464149008
0,963117095684632
0,963117095684632
0,953826011387821
0,953066687068644
0,952604435219572
0,952604435219572
0,947308682531729
0,949801842491369
0,952426826585644
0,953203278424912
0,953332953379878
0,952809115195693
0,952809115195693
0,956497631988705
0,961762579850142
0,96170225121916
0,960833981497324
0,96263893023293
0,964898217430212
0,964898217430212
0,966685895211056
0,966041852095446
0,964248671246168
0,96131760620515
0,960131881566277
0,961475038677552
0,961475038677552
0,966011661420296
0,971061939322101
0,971079013263082
0,975647241578635
0,981260092941724
0,985755040565353
0,985755040565353
0,990224747216509
0,993082408463668
0,998249277485338
0,998249277485338
1,0093619222063
1,01491298641805
1,01491298641805
1,02515849506308
1,03285633076435
1,03590222028915
1,03590222028915
1,0455314868525
1,0559060990448
1,0559060990448
1,065846846409
1,07139440450284
1,07327850532842
1,07327850532842
1,08070973438755
1,08411039105803
1,08411039105803
1,09033408182997
1,09106566713466
1,09535887269881
1,09535887269881
1,0965509016913
1,09805938364007
1,09805938364007
1,09729118286807
1,09640907511749
1,09599518703323
1,09599518703323
1,09240500731185
1,09240500731185
1,09123224842377
1,08810566582479
1,08545527775215
1,08049253583725
1,07603647707687
1,07313381737787
1,0690080869666
1,06427858664919
1,06071386339578
1,05691771675945
1,0516267969199
1,04697393472808
1,04251565455872
1,0368071662561
1,03321609066061
1,02785649290161
1,01973479885704
1,01973479885704
1,01567718296711
1,01281475107741
1,00937620835841
1,00559350634339
1,00253028881925
1,00019266643982
0,996302338650271
0,996167470860196
0,991868020454334
0,990858688209373
0,987953060625858
0,987309292977636
0,983904903941433
0,983499456024252
0,985068012880329
0,984454590115766
0,986041449433035
0,985484545794606
0,98691402867727
0,985992946222233
0,984010543642699
0,985627784713885
0,987395432438291
0,988254471277515
0,990815346066057
0,993525651405136
0,996604605648599
0,997160388302704
0,998471181356778
1,00121029259592
1,00183931346299
1,00549296367503
1,00743707495803
1,00882193671629
1,00902055479559
1,00921314894327
1,00676921387178
1,00579173788613
1,00782459287318
1,0061724404892
1,0057546718758
1,0055095673339
1,00506731117871
1,00438593180112
1,00556315564961
1,00391479220101
1,00151335487851
1,00143019227503
1,00164503692675
1,0006753969195
1,00040736202809
0,999779240632651
0,998592179020044
0,999193354661649
1,00105537808855
1,0004231304803
1,003041125777
1,00247775536418
1,00225670863307
1,00339526608411
1,00325477322562
1,00173971669291
1,00183412299642
1,00088439392369
1,00029428669767
0,999756960465892
0,998931974660938
0,998907232930065
0,998987907834724
0,998090456822427
0,996710956095096
0,998235613470086
0,998241518872061
1,00017632445484
1,00370691937438
1,00837387411614
1,01147727112378
1,01174003083796
1,01460091661697
1,01436193737738
1,01082050335359
1,00844247233047
1,00457977284037
1,00001202992764
0,997930027607146
0,996580598847881
1,00004165413247
1,00207684835046
1,00357156695474
1,00413346224493
1,00695041585969
1,00578321222816
1,00399211650291
1,00398060738243
1,00151231145703
1,00079481413525
1,00083018040025
0,9995660958636
0,99758610154713
0,998314910236244
0,992827331412668
0,986342278319245
0,984626172717342
0,985067251511286
0,986813467682723
0,98758406730769
0,985746295960578
0,98497578650442
0,985367388337974
0,985439693740819
0,982632698417878
0,981843373456276
0,983390909048889
0,981201029351274
0,977680003886752
0,976197259778985
0,974198881132595
0,970842984215264
0,966778826826488
0,964405257140379
0,960054805727256
0,957855698944262
0,957411541605803
0,9551337550312
0,95251567966097
0,950335656491958
0,946936249174146
0,951950024948789
0,949890214709047
0,950723487666104
0,948396863132729
0,94818400640382
0,948282389375654
0,950033730980116
0,950050046050207
0,944683788365186
0,935512597456603
0,934039554836946
0,929136491587754
0,9341276251134
0,941198778154753
0,942446019674337
0,943853065895322
0,944506304902196
0,944245238272346
0,946203154718901
0,945707877729693
0,949168357036833
0,950121276469483
0,951293340668377
0,954391376742267
0,956180668074815
0,958421540868109
0,961280770638839
0,963805862194249
0,967555936367505
0,969433984343442
0,971944427423708
0,976710852811619
0,981455668891876
0,982238056684834
0,987874981968872
0,991280651480699
0,994532804888808
0,997745924571982
1,00184504290833
1,00540062164293
1,00722213538027
1,01160068208755
1,01529864571957
1,01698128793012
1,01813996090911
1,02071285384284
1,02366280092616
1,02673995247093
1,02701009732135
1,02992220094529
1,03136814959548
1,03429719616752
1,03592160417669
1,03728692751813
1,03987935357906
1,04127597686684
1,04174177702538
1,04389035343756
1,04425916802296
1,04803767584949
1,04740872633371
1,04682444564502
1,04819514404523
1,04723113017137
1,04625366904972
1,04833333439322
1,04871314476362
1,05041720282943
1,04771487533584
1,04556577507109
1,04474447115072
1,04247271906751
1,04379770549662
1,04473411928586
1,04298378223249
1,04348069459861
1,04486750834735
1,04208038557493
1,04422094405351
1,04370927465459
1,04179876655715
1,04262266904187
1,04119952938906
1,0425557539048
1,04375416166835
1,04292982506015
1,03767941099359
1,03447388560563
1,02448274753653
1,01888230429231
1,00840405592203
1,00447773992259
1,00029330698551
0,997907781310478
0,994604247929798
0,992207412792305
0,989026197833
0,985612134665559
0,983556531166359
0,980997375123909
0,981576960813568
0,980860713863085
0,974955029732141
0,97386932388283
0,97644442238153
0,978367379873225
0,978921626076368
0,982601704659624
0,986373321820902
0,988968351364188
0,993170297582444
1,00251641881817
0,990452608659294
0,9725906949997
0,983909635078344
0,993654411754912
0,985525428388329
0,983036098014717
0,990097656799571
0,993085887524337
0,986436505812716
0,982132480880253
0,981926173395943
0,984279447108391
0,985185474923377
0,986014685489014
0,986046834587485
0,986502108462014
0,985072530324544
0,986206864709428
0,987407686824444
0,988118803585885
0,986722605396268
0,987352895372268
0,990939337194765
0,996296888482545
1,00338354082574
0,988634922506787
1,00202104768313
1,01139678662729
1,01405775969616
1,01198174884728
1,009322015018
1,01122760049358
1,01049534387844
1,00988380519741
1,0118629254993
1,01468936133183
1,01775950499123
1,01540355524294
1,01267361968208
1,01246462654258
1,01852093252913
1,02831659035532
1,04363371927128
1,0273574158977
1,00160651455549
0,995896676367584
1,00969549865294
1,01911324199031
1,02642593010894
1,03191508371571
1,03921810030426
1,0510120551164
1,06112474761453
1,06164947134165
1,06164947134165
1,07206592148058
1,07554972920828
1,07935207416301
1,0803962698936
1,08324276595784
1,08893058089118
1,08893058089118
1,10153853314353
1,10751518725478
1,1147007401092
1,11538684320732
1,11651958334818
1,11295366480371
1,11295366480371
1,10847938185606
1,10154445212166
1,09387396897449
1,08529391871511
1,08586926008613
1,07468787561785
1,07468787561785
1,05971580152416
1,055239541526
1,05073395776476
1,04833248065678
1,03603773097315
1,02838813684328
1,01682150842712
1,00044964890793
0,986094523866754
0,965177004491922
0,965177004491922
0,918926248400817
0,898368793981625
0,872798934463144
0,846726242654614
0,821793076145084
0,801306551826453
0,801306551826453
0,760596489605362
0,742445284179245
0,724833201502249
0,71354384588475
0,708768580003375
0,708989633210529
0,708989633210529
0,724434193008585
0,74298793395317
0,756470739685284
0,785615516649207
0,813692872034652
0,841490968460149
0,841490968460149
0,897217777353971
0,927661473814667
0,954202116954265
0,977975572292069
0,998673900730364
1,02005127812282
1,02005127812282
1,03793006026418
1,04245117871294
1,04239679105416
1,04239679105416
1,04451126370183
1,04538712924926
1,04538712924926
1,04705471681283
1,04323563493585
1,03682452710186
1,03682452710186
1,01708464741141
1,00096254675188
1,00096254675188
0,972242798893363
0,965474795113782
0,965577205613306
0,965577205613306
0,979731054932934
0,991124361520793
1,00108541593612
1,00228639120762
1,0022715699849
1,00492187258513
1,00492187258513
1,00230441483613
1,00168458608486
0,998176562537911
0,990749034821634
0,990862952178554
0,989115053975017
0,989115053975017
0,982055573783887
0,978077834326083
0,972182436582764
0,966805900892211
0,962082018333156
0,960107952263702
0,960107952263702
0,952318292379181
0,951579660354297
0,95368865988854
0,95368865988854
0,962615369709003
0,974220472993665
0,974220472993665
0,99054541036744
1,00285569251014
1,01751882537868
1,01751882537868
1,02547941471294
1,01938005179619
1,01938005179619
0,994686950753854
0,977714196480751
0,970419362956037
0,970419362956037
0,960496002073928
0,960232529130314
0,960232529130314
0,973330134127162
0,973330134127162
0,985407073244352
0,990954549916392
1,00014161997189
1,01075426786138
1,02272685014133
1,03047797647499
1,03166235271042
1,03337098856122
1,0320922148723
1,03011182402689
1,02529177310656
1,02373952253491
1,02223831859308
1,0242133225066
1,01926176225737
1,00783279367165
1,00080856311285
0,987656514178892
0,981720398076764
0,97843549608546
0,972867622032926
0,980376483806094
0,978285750688417
0,971115811837085
0,963683018424627
0,969584673971283
0,990410894528125
0,997615291582883
0,987392059923514
0,986469796800693
0,989525022422374
0,993163556520274
0,988064097111114
0,977498368285083
0,976541146086533
0,972705618365598
0,971801131919489
0,982593308546318
0,974623922341331
0,982408596257178
1,01235905191785
1,01875366011612
1,0234043042708
1,00997834630253
1,02112737697116
1,03838679691144
1,03291334099236
1,04093282203992
1,04205000839691
1,04988298395583
1,04758086084082
1,03420426415675
1,03097253600666
1,03924813687589
1,03917669816062
1,0360092132795
1,03291409613772
1,03755372391024
1,03923049416383
1,03498421727097
1,03426667740965
1,04400659001752
1,04570841538165
1,03851683183278
1,03411474701795
1,03340190148848
1,0356674466256
1,03858080571518
1,03019344299991
1,0249575308275
1,03314507693741
1,03441657469319
1,02904224888971
1,02179302209401
1,01191326703428
1,00341727112902
1,00821157997714
1,00829018640469
1,0043466831727
1,0053356106296
1,00407052043171
1,00599364312107
1,0021518747176
1,00059119024705
1,00204385632566
1,00197024905932
0,999138128588835
0,994803322270287
0,994164241964073
0,99512379631883
0,999828615313645
0,999680699023443
1,0038799181177
1,00287202573409
1,00039341261326
0,998438961579525
0,99834066830917
0,99410239915212
0,995790731027358
0,999255047522904
0,997370532951521
0,994841022475451
0,993540844656122
0,98986424321722
0,993136919060006
0,997066642707497
1,0121880062518
1,0111717757137
1,00894691634397
1,00227845432295
1,00221183888437
1,00669165090409
1,00896704604263
1,00664024358258
1,00927235670061
1,0113119103422
1,00962112200568
1,01111420225413
1,01168327059411
1,00983551135816
1,01560843340335
1,01577529503331
1,01637974694501
1,01911107343606
1,01783909828617
1,02530554470363
1,02675508277291
1,02353257398092
1,02230237209937
1,01631243719636
1,015118106429
1,01448860023166
1,01887658231996
1,02069314683699
1,02375308546544
1,02711864942664
1,0230171943814
1,0228904340153
1,02545252937423
1,02134253803511
1,01977211670059
1,02001756847615
1,02223076651018
1,01965486808037
1,01698002438593
1,01418374074918
1,0214172164204
1,02472873971603
1,02639146528018
1,0180702578899
1,01575515258353
1,02165016517397
1,02710212247858
1,02369623424139
1,01993661567766
1,01776100337948
1,01893479182919
1,02198129630635
1,0251361373008
1,02630085744873
1,02832676226966
1,02843172354804
1,02209816064799
1,02083556462341
1,025207344882
1,0235907043345
1,01802088387223
1,01585181498091
1,01145197117807
1,01205222691322
1,01407965663453
1,01342061356576
1,01379656243252
1,01603817349546
1,01652292153202
1,01236868284237
1,01210991991977
1,00840399146374
1,01174922288085
1,01213315823561
1,01030317726908
1,00643996840348
1,00413716194552
1,00006681776769
0,994348570673283
0,985244391001542
0,974324314589347
0,967415531196393
0,961543077558151
0,96532654578645
0,969354367607636
0,973225405545909
0,975379613278851
0,977227163969566
0,981251231846361
0,982523943728599
0,978007126763399
0,962498280517945
0,941033415984789
0,91620514078453
0,895712051945267
0,881321780055389
0,876203207024489
0,881162391389918
0,889764418259125
0,891698973869545
0,891441288027428
0,891927900673592
0,89907079810213
0,914699737618854
0,93150952759486
0,94097024395036
0,944950014551034
0,940876942006764
0,938720671978624
0,93511042128724
0,937381571186462
0,93789036672737
0,943375519080287
0,953053141225609
0,963424937397823
0,966617013092569
0,972618784519403
0,976724178056426
0,977305893771239
0,982584637575817
0,976958806705789
0,97386428725978
0,980834981023821
0,988396494328061
0,995189092584922
1,00280983242088
1,00956356412066
1,01252299233153
1,01577598908421
1,02008393772277
1,0244946754376
1,02751742564299
1,02841637968286
1,03058302916359
1,03209335818035
1,03567244339125
1,03597643312963
1,03553627652536
1,03386620991306
1,03251976736525
1,03148968972065
1,03524362833103
1,03707232631095
1,03680589311597
1,03524869958865
1,03037265588718
1,02688783223875
1,02240321791356
1,0191715311958
1,01536636245249
1,01063019448263
1,00487794781257
0,998133262645825
0,992794298936089
0,989759612229151
0,985491603211311
0,981015851044212
0,971368086772466
0,968035293778073
0,964450278656189
0,961170161834001
0,960260808322406
0,958471147192236
0,95601128131419
0,954324143045747
0,952914067479329
0,951418677554735
0,950773632364718
0,950571775301581
0,947557760772398
0,947635694768828
0,946091396219202
0,941869173505535
0,945500830248181
0,948161800538284
0,950352297834861
0,953064751210535
0,953064751210535
0,956557003006094
0,957213502829959
0,95850832547245
0,958907894429908
0,9619923128591
0,962821504745298
0,962821504745298
0,964702057632303
0,971197122112705
0,972399943438912
0,97536477279016
0,978593618413691
0,982700661442741
0,983632929501651
0,985987809255267
0,988459265726211
0,991285513865708
0,996906133996576
1,00058341481358
1,00530470505215
1,01237580966754
1,01822467559964
1,02442626381795
1,03286547526771
1,04051253236086
1,04781591417577
1,05255733335529
1,06053739679466
1,06517139935317
1,07078900349228
1,07571762558768
1,0814187348109
1,08754551169135
1,08902375548011
1,09270280497489
1,09587193138615
1,09716419008278
1,10133522598707
1,10133522598707
1,10025687000809
1,10283214044568
1,10292852442939
1,10192033287348
1,09990738246454
1,1006051471804
1,1006051471804
1,09724398836357
1,09405168525075
1,09179826433275
1,08852660968853
1,08601588846573
1,08267552387592
1,08267552387592
1,07623260496976
1,07088857963842
1,068217927204
1,06366726000192
1,05954390659378
1,05527699681174
1,05527699681174
1,04586816090748
1,04033785858249
1,03652791568775
1,02891186697404
1,02579784558167
1,01933834912653
1,01542508340104
1,00910370131122
1,00290548408113
0,999101451305122
0,999101451305122
0,993894913962236
0,992749404431954
0,988561950511955
0,986613875839986
0,983178981671191
0,982811401032772
0,982811401032772
0,984219960171506
0,984772146234854
0,983688660095256
0,982914299417808
0,980760302010639
0,982194288315708
0,982194288315708
0,979986586642899
0,979006746657039
0,983338731058632
0,981400132463818
0,982668682720682
0,984982086131519
0,984982086131519
0,986503689805568
0,989463253486455
0,992827381773891
0,995213992064018
0,996630744057196
1,0006510580617
1,0006510580617
1,00453078598916
1,00668294909569
1,00753833177701
1,00753833177701
1,0073604220933
1,00831579378685
1,00831579378685
1,01050088569976
1,01107753906414
1,00874948822788
1,00874948822788
1,0075000248139
1,00786892004863
1,00786892004863
1,00707825415903
1,00532877706748
1,00556975889294
1,00556975889294
1,00562279707652
1,00346274968232
1,00346274968232
1,00122754157085
1,00325417018819
1,00504930724816
1,00504930724816
1,00632262222411
1,00378329334573
1,00394497857203
1,00383008024267
1,0030223227825
1,00424449712209
1,00424449712209
1,00347083166378
1,0030814174333
1,00337204465741
1,00337204465741
1,00401319214441
1,00264383008125
1,00264383008125
1,00061707460946
1,0013955362393
1,00048272348902
1,00048272348902
0,99957337899726
1,00153590050482
1,00153590050482
1,00254391425014
1,00208164338042
1,00367687031235
1,00367687031235
1,00248496746834
1,00327355192888
1,00327355192888
1,00104859522403
1,00307926905106
1,00307926905106
1,00533104497971
1,00567233729481
1,00725427276334
1,00558551103325
1,00626621229176
1,00803419088838
1,00769511758269
1,00471357610017
1,00572485800044
1,00749911166214
1,00300186939008
0,999384780752639
0,999100770693327
0,997960505230543
0,998445697071203
0,996772165542357
0,996772165542357
0,990517591968966
0,983406208034096
0,984223501040287
0,986458204892635
0,982893468286365
0,972378989900543
0,972542081351753
0,972579189577897
0,970137979877089
0,969682360363434
0,967463994162057
0,968824359726777
0,969098761736904
0,965530144532008
0,962531563118841
0,95823019155107
0,958201951573884
0,959883060586028
0,961171259453798
0,958482686332935
0,954584632183024
0,949908364001497
0,948812942576143
0,94921318996314
0,94504609940468
0,948204877650395
0,945819311496652
0,947873034746743
0,948797038359627
0,951341862844267
0,952936524643693
0,953087435653204
0,952238026965947
0,952790265483438
0,952022741325017
0,94753611540669
0,946160810856167
0,944691034148202
0,946083516397997
0,94909272992685
0,947904246218994
0,948951510879244
0,947227348633896
0,945874230540192
0,944206815268774
0,94338889117903
0,942095584322525
0,944041243802409
0,945846610185817
0,948342738676266
0,951272799989572
0,956669498834368
0,960838774196795
0,964858663224827
0,970637002179497
0,975517847094557
0,979510872833988
0,987100992806714
0,992172031454223
0,99741601150172
1,00059363879649
1,00413834704188
1,00867202796548
1,01193636657648
1,01650935067022
1,02080522138163
1,0229558006092
1,02576852164609
1,027122942982
1,03044181301032
1,03498690812976
1,03822615551719
1,04135940481661
1,04349982750358
1,04334470813821
1,04428119297438
1,04488853951032
1,04360783822277
1,04506850493161
1,04615941901796
1,04593292805992
1,04493051443625
1,04554660345678
1,04526316781947
1,04448619904717
1,04478678207565
1,04452759657177
1,04487658122862
1,04481771137362
1,04525126165913
1,0446893988167
1,04412556237265
1,04594413808769
1,04712165959835
1,04457898696078
1,04548002850365
1,04482711010004
1,04451808026477
1,0407204956183
1,04050365208393
1,04117578246903
1,03851186801115
1,03492079407073
1,03410290590444
1,03249538982022
1,03187926134795
1,03146576288309
1,03111863526948
1,0309584666707
1,02970061668429
1,02851206604492
1,0279598922137
1,02788975089744
1,02603978480369
1,02588768391087
1,02397843727297
1,02157293425384
1,01852497269336
1,01476445542796
1,01167039592943
1,00778542358976
1,00427311524306
0,999835286434721
0,998889238104005
0,999989869948691
0,997987805536721
0,996236001156353
0,995616823883566
0,977128763265108
0,981791938243536
0,981561276742313
0,989773256862399
0,990037908365129
0,980540697778527
0,975784253818435
0,979923930721156
0,9703178448323
0,964346550779335
0,964301591826955
0,967804815032453
0,964116102966857
0,963120002907218
0,962794895084098
0,962306468854907
0,961785656994322
0,960334722896137
0,961663958979435
0,961548069521228
0,963586851300909
0,965223253967703
0,964750677636456
0,968151847594167
0,969400753042827
0,972881359673419
0,975067187428641
0,98116249418738
0,98519805623032
0,96713825795488
0,980080256917769
0,986972228585992
0,996428221198095
1,00494439149637
1,02016184010185
1,02890331421373
1,0275048467039
1,0208820255054
1,015243300889
1,01486537530847
1,01552959582673
1,01761286351932
1,02523626057607
1,03861663764837
1,02936295348142
1,00449049771514
0,991725692921183
0,997357112573024
1,00576230293246
1,01139461141535
1,01517005964518
1,02175868971103
1,03315533682017
1,03957609149114
1,04543610995603
1,05464337100273
1,0607584974913
1,06544119030569
1,06680973936312
1,06659421055995
1,07118179596182
1,07622234691536
1,09072388348289
1,10312887279773
1,10464885370872
1,10627159413952
1,11502011641046
1,12293751829743
1,12821282566721
1,12869759014539
1,12803511913415
1,12617037343379
1,11612627421811
1,10612492513278
1,09372400540539
1,0834739037005
1,07468639611749
1,06811338817562
1,06807285800174
1,06525075451745
1,06087098650119
1,05876935165314
1,05457557339434
1,05353483568414
1,05792008204779
1,062965864927
1,05615211972518
1,05265939885606
1,04625988167376
1,03242038918262
1,01500891129093
0,987208367063408
0,957866509488666
0,927214910363288
0,896947111038326
0,857600728777675
0,831463589100569
0,805653585606121
0,786568617477204
0,768370444512281
0,747333787540748
0,730793301830278
0,711042481150037
0,699657151753629
0,689878518291445
0,685800262467141
0,68519227228567
0,695918213585476
0,714871855649668
0,735040223389169
0,758470731142607
0,78872211202679
0,821332313987463
0,8540663557359
0,885392534416233
0,913701794898095
0,941882168851285
0,969282853454037
0,994307261363408
1,01759236435815
1,03943179670433
1,05495218375052
1,06359187661433
1,06624462952927
1,06355414060592
1,05611101689169
1,05207253552215
1,04951381124786
1,05104028942757
1,05397655571649
1,05630916875695
1,05696953125433
1,05300291547555
1,04280750380883
1,02710275045878
1,01065294735631
0,993699038944891
0,977653537813882
0,966117617063264
0,964194560241863
0,969727353434975
0,968688520629826
0,968337616743251
0,970812886193833
0,970812886193833
0,981726321334006
0,987583652153072
0,991141987810021
0,991181789582516
0,988668023150339
0,984702518530343
0,984702518530343
0,977626932935054
0,975753011781158
0,973251601591284
0,971388583420662
0,967856259989054
0,965376082156586
0,964808716793127
0,964136240372698
0,967243991968934
0,968752739350966
0,966351975214
0,969780103941094
0,977150991403069
0,985404586959083
0,993045376606729
1,00257697460095
1,00999854950391
1,02187045167183
1,02958478038479
1,03135819674835
1,02367482141547
1,01414570945205
1,0029177932413
0,990096535697404
0,977026401895056
0,972781177860674
0,970243464291309
0,969325879155199
0,972425673252203
0,97682392476843
0,984947932634005
0,984947932634005
1,00058989601135
1,00147018427909
1,01001236131049
1,0171417993574
1,0211429136022
1,02383734059664
1,02383734059664
1,02436486175581
1,0294421450475
1,03057724601313
1,02684943881759
1,01979134140274
1,0127461132979
1,0127461132979
0,99989307928398
0,995198377209288
0,995543755944459
0,987066137601731
0,984660149493215
0,985484621899297
0,985484621899297
0,980606246155918
0,969219015496498
0,975811216373331
0,990049503812814
0,998432216026707
0,987329347279822
0,987329347279822
0,967165518409336
0,969554805052298
0,977990010173928
0,977990010173928
0,975038994092031
0,974568489127368
0,97276174369678
0,980949759162007
0,993351267175917
1,01320987954125
1,01320987954125
1,0001833831853
1,00387368727345
1,01431648414092
1,02253395542642
1,0151660997098
1,0191661444534
1,0191661444534
1,02493229532492
1,03575996253958
1,046149974908
1,04120490778713
1,04356267660357
1,04299258386625
1,04299258386625
1,03567638285325
1,03787897656711
1,0380798331535
1,03960700747927
1,04197232688781
1,0508210932409
1,0508210932409
1,03537194765939
1,03653808420144
1,04271373348585
1,04271373348585
1,04571251307422
1,03615528276412
1,03615528276412
1,03023572545316
1,03169787244135
1,03060916937508
1,03060916937508
1,01803892361736
1,00707296160705
1,00707296160705
1,00535508652416
1,00535105808867
0,995804428590273
0,995804428590273
0,993540643355872
0,997263801609183
0,997263801609183
0,998626206345497
1,0039159476769
1,00559650954048
1,00559650954048
1,00477349686385
1,00286035418696
1,0039863395485
1,00402126471505
1,00155560005424
1,00236318767201
1,00236318767201
1,00830607952149
1,00751122078119
1,00934819066564
1,0144107501402
1,01195365012435
1,01061108246447
1,01061108246447
1,01027752622732
1,01322497501789
1,02131313023969
1,02131313023969
1,01496295991529
1,02074868601434
1,02074868601434
1,02080066614398
1,02219629230398
1,02195171608056
1,02195171608056
1,02526436103085
1,02526436103085
1,02325667356729
1,02268733736172
1,03316272193687
1,03469899487725
1,03076730157684
1,03327949268337
1,02615952463542
1,02615952463542
1,02579715831153
1,02925377822965
1,02632458803246
1,02348168034411
1,02527906445026
1,02873969982693
1,02842204371552
1,03199128872292
1,03047913613037
1,02933922008248
1,02734092199231
1,02845865740923
1,03056192924055
1,03023408019731
1,02785421631669
1,02679576839798
1,02795663819054
1,02683130065264
1,02756579351397
1,02485279430755
1,02348884214729
1,02472081075774
1,02475425834685
1,02182135914259
1,02134690482715
1,02071436259122
1,01857317361101
1,01944658025813
1,01924601053916
1,01931481888571
1,0200365189541
1,01871433679909
1,02029383022735
1,01905046489367
1,01826861387357
1,02052049954913
1,017581746102
1,01801545666065
1,01954492299261
1,01520371847231
1,01558257665244
1,01410228774025
1,01222941075628
1,01181841750385
1,00948932634278
1,00731655401865
1,00700521349197
1,00483433958041
1,00458802003607
1,0006707000807
1,00059452826807
1,0007583624432
0,998673790584293
0,9997938437498
1,00483183170121
1,00734822678158
1,00354482211808
1,00255092140001
0,997362351404945
0,996742158233512
0,99732310210884
0,993646310313685
0,989584225824159
0,986508981205949
0,978879916026476
0,96860795474743
0,958375281400767
0,956232869127599
0,956312600565317
0,960409464759693
0,963999631742668
0,963579540048459
0,964217351015838
0,966001992751568
0,966672369523408
0,964077512443891
0,960958490258554
0,955110239710579
0,945454922246428
0,922487230263921
0,903721605363068
0,888072485780299
0,880876574782188
0,871429142271476
0,864432438077147
0,867449704593874
0,877049012313451
0,883671488733228
0,879399459858829
0,889144054695301
0,898413340283858
0,901622016146456
0,905537525451044
0,917191032446349
0,935005112285489
0,942058655286389
0,954045135200636
0,965502459862221
0,975895014845347
0,983256441626497
0,989727088646158
0,991067570854783
0,994020346874248
0,997382905407948
0,995460752616596
0,993713615686129
0,997823942386632
1,00134450115832
1,00128280720284
0,997915672790041
1,00042103636419
1,00327454368184
1,00519835853427
1,01073586064807
1,0195467081012
1,02793031865005
1,03217123579375
1,03137230426263
1,03735879039029
1,04349803066417
1,04269841277332
1,04451513153233
1,04395211097061
1,04134395854588
1,04157680945766
1,03946025898059
1,03738354527147
1,03787631729412
1,03734822504307
1,03691043489783
1,03497657461413
1,03321574223392
1,03171201892776
1,02895278803257
1,02284568728621
1,02077130641491
1,01461114226092
1,00932526471896
1,00048561209045
0,995464579982633
0,992028658860217
0,986315659411326
0,983504631407499
0,974599584444812
0,966638205328136
0,963126217066071
0,95929008125801
0,955749114569299
0,952899312624372
0,952333056236105
0,950690975028163
0,949425452576452
0,949396171258343
0,948691277497585
0,947769391782621
0,950587844441533
0,95190417059702
0,952874372622121
0,955820846184054
0,955237190440155
0,957591003508283
0,955788098900588
0,956792443532034
0,95972771659466
0,965837610574366
0,967630099779869
0,967317595208523
0,968220429447758
0,971516922137746
0,973187371475812
0,97812759903808
0,980591602044398
0,981489648442611
0,982828306470667
0,986404911788257
0,990802018568796
0,995968985460893
0,999552955075418
1,0050681021702
1,00802827837318
1,01463400297841
1,01804886424965
1,02335311598685
1,02877990843523
1,03462792345848
1,03924717464134
1,04510188498538
1,04819935603873
1,05013239641485
1,05268462988684
1,06118242069872
1,06752224332798
1,07389998603222
1,07460047459509
1,07634548821463
1,07916447773266
1,0757518068774
1,07906222712131
1,08077330648013
1,08105442508691
1,08049390558207
1,08122953622254
1,08224042153303
1,07823029543785
1,07766856686089
1,0745102419242
1,07403377972948
1,06971686908266
1,06807759081445
1,0642843604977
1,0620936211088
1,06099696983545
1,05633925421713
1,05447899931672
1,05098973353692
1,04698692924028
1,04329835138373
1,04113268126594
1,03760810521121
1,03313610429604
1,03059483309398
1,02933207469699
1,02399290524886
1,01995225378446
1,01854020048302
1,01485752201972
1,01323824444205
1,01026469798761
1,00949480434522
1,00722659813966
1,00307860609226
0,999660962526796
0,997850439695248
0,995492908061127
0,993577576236501
0,994379530159385
0,993281782778684
0,994615533761664
0,992602166026248
0,995210455129969
0,996307025971412
0,996893314251831
0,995473339673143
0,99679865068127
1,00055756955809
1,00133373557471
1,00247745610562
1,00249283289209
1,00417625444939
1,00551605158744
1,00669900665492
1,00787870798028
1,00981583469462
1,0128363243881
1,010167441566
1,00521618570335
1,00763275055945
1,00975199925526
1,01327608774707
1,0176827599994
1,01813493702947
1,01696437499059
1,01962991815658
1,01449217838286
1,01469381588733
1,01357558178954
1,01689923296264
1,01724754607716
1,01895768803224
1,01611427506949
1,01728120989233
1,01701306284629
1,01846848748501
1,01637633778045
1,01665601360539
1,01644153299636
1,017121241544
1,01762056288186
1,01619786951164
1,0167523838182
1,01441183944195
1,01615676940126
1,01710380001257
1,01452828447511
1,01487568696861
1,01487568696861
1,01796870777053
1,01661939780825
1,01714711325354
1,01639959661543
1,01508562693006
1,01746764567725
1,01746764567725
1,01892086542577
1,02319425330677
1,02276336461569
1,02258516026784
1,02323958582533
1,02089715936523
1,02089715936523
1,01562258245866
1,0120156421716
1,00591447946632
1,00161569975715
0,998002394786706
0,995961851679069
0,996510120370084
0,994263088925663
0,99336227530544
0,992817792950952
0,988053571422117
0,989162175783122
0,985540516670928
0,983175477725111
0,984248164844619
0,98213369252867
0,98129837460377
0,976257988443629
0,980709584943473
0,981963140856112
0,978860878776959
0,981762725917011
0,982362870837452
0,980703451610118
0,980703451610118
0,981523188722508
0,983260036816304
0,98259530835436
0,984921646629822
0,987306112611484
0,987233903388655
0,987233903388655
0,979490755443868
0,980369858777798
0,981496586850917
0,981825305235101
0,979545266947883
0,978557003960423
0,978557003960423
0,974384554475285
0,966430628653707
0,964684642771927
0,965057661489716
0,963070148016228
0,96309743016997
0,96309743016997
0,960514409053815
0,957113859475454
0,957536578935761
0,959034905516999
0,961634306792348
0,957234856239575
0,957234856239575
0,953554702153998
0,9519937079624
0,947896112451148
0,947896112451148
0,947623780832879
0,949284077607962
0,947418656138879
0,948607916897176
0,950875649073
0,95126741771176
0,95126741771176
0,951686040666774
0,956588046130621
0,957602156430321
0,953583944915182
0,949273790852776
0,948272329027901
0,948272329027901
0,955933140967505
0,959196632604598
0,961958777703078
0,961208452938279
0,959149774539931
0,959160205596542
0,959160205596542
0,96191378511798
0,966449160587353
0,967055830859832
0,969832284469846
0,974476259331134
0,977126429895333
0,977126429895333
0,981613044941845
0,98434877457129
0,987764835373279
0,987764835373279
0,992693426995465
0,995170266838796
0,995170266838796
0,997684489204879
1,00036317905049
1,00412825376044
1,00412825376044
1,01034096224987
1,01232560967309
1,01232560967309
1,01640132821637
1,01717977762046
1,01968749134232
1,01968749134232
1,02434702127746
1,02568795937166
1,02568795937166
1,02570520131274
1,02923728556636
1,03069003584977
1,03069003584977
1,03355334647032
1,03394675878403
1,03394675878403
1,03413094915489
1,03624167547923
1,03740770673829
1,03740770673829
1,03603900023117
1,03920780405076
1,03882578905224
1,03865001805228
1,03804579378754
1,03561049627744
1,03561049627744
1,03528334768797
1,03601708962739
1,0343264716713
1,0343264716713
1,03103973735254
1,03103973735254
1,03166689391489
1,0312465999944
1,02711549983437
1,02734647028157
1,02636442845609
1,0247772928788
1,02687351217178
1,02848420989338
1,02813702394185
1,02950625544481
1,02756091790219
1,02547400259587
1,02537997347325
1,02337401764946
1,02272473813827
1,02637967146666
1,01813052699543
1,01614149605259
1,02418684330546
1,01509331590746
1,01131179168444
1,01790116416084
1,01521958708449
1,01327667495112
1,01071697818925
1,00729948376836
1,00254773951169
0,994031996466915
0,986786836150544
0,977877441195981
0,969924811518914
0,965503625057928
0,969022538437574
0,970390977905298
0,973298777354621
0,972718227443076
0,971590186241092
0,970070110868282
0,969137884926598
0,967547068622504
0,970658297239559
0,974082306583997
0,986104284546011
0,982628566651713
0,966672281592888
0,962083286415475
0,974511908598351
0,982213057335322
0,988627508215303
0,991940109079172
0,994991226091969
1,00054980885511
1,00372995372261
1,00597472135238
1,00658184466043
1,00810250470872
1,0076151249361
1,00403004935111
1,0018856870921
0,999782246291661
0,998699504355539
0,996558683670962
0,998012054035421
0,996938257867557
0,996385076162826
0,998385807190787
0,997329664654571
0,999899329932769
1,00204738909894
0,982350721483931
0,990204953532348
0,994059007302886
0,998799699639522
1,00787632673855
1,01739257418167
1,02294026218543
1,02150936853266
1,02260536376454
1,02542875422918
1,02706070414557
1,02753688498272
1,02860891013057
1,03122271600271
1,03257050606726
1,03983193834388
1,04378754064225
1,04838741884859
1,05402412685858
1,0520100997614
1,05461419011883
1,05626095733962
1,05928980453887
1,06463859595639
1,07004342435249
1,06852416444365
1,07057921238926
1,07490560515796
1,07861511671217
1,07907490935523
1,08134178685557
1,0833629908761
1,08079840858506
1,08671833517246
1,08899535811683
1,08731214469443
1,08407126149529
1,08608874867572
1,08023722394667
1,07446918057243
1,06919237745132
1,06749768149631
1,06538838458095
1,06713392317928
1,06005231003003
1,0491719401509
1,05375054448385
1,05346006094204
1,05545870596627
1,05219149397816
1,04582435427752
1,03698100754064
1,02291712763058
1,00545026729322
0,981251170699939
0,954549082027739
0,923898782334948
0,898904077196227
0,878371698086863
0,855176741966244
0,829719958781275
0,808595455094821
0,795236700611837
0,7837613029488
0,772455985801133
0,764859653792773
0,744930245056542
0,732524579792378
0,724636757279121
0,717756769386399
0,716599204576728
0,729057240551111
0,750726987659295
0,774823567013807
0,802798486545659
0,835494996992801
0,870377768557998
0,906408941924118
0,937055137118409
0,967506284217317
0,994321990101798
1,02027686928598
1,04108240788134
1,06223150019193
1,0765090478022
1,08572019415686
1,08930041310926
1,08817374072342
1,08371264180132
1,07850372739272
1,06887389808153
1,06054247439695
1,05119971461183
1,04308240805796
1,03199671511105
1,01706122234603
0,993692004596998
0,980576825139163
0,96791557999652
0,957957379010152
0,951140583720409
0,944809229421474
0,943085627077414
0,950317831043909
0,960190319676261
0,969882601143045
0,972610302227979
0,977021089844022
0,976328044255618
0,98009773492239
0,985400045666733
0,990438357496316
0,995394117925156
1,00203130190628
1,00498785564802
1,00667506177515
1,00365281347685
1,00338736786946
0,997807762046377
0,994104471371093
0,990881511584508
0,993669296094027
0,996936768305794
1,00100704293227
1,00376847928195
1,00715088740466
1,01006557212886
1,016989385392
1,02717002000643
1,02824877340068
1,01969303714402
1,00556368768965
0,986071016712285
0,966899017478041
0,952519207155425
0,942585831635507
0,936714225364385
0,933274091572246
0,937324778291922
0,945566317081991
0,956044836814676
0,966206282322776
0,974446817430279
0,986204446349741
1,0017429510608
1,01230624318928
1,01977610287749
1,02195929958096
1,02649959571351
1,02935211662482
1,02341595649081
1,01996403858175
1,01572370751105
1,0084191092993
1,00760335946244
1,00607112074644
1,00347004937865
0,993878191731764
0,988049538231763
0,98585588196247
0,986174406481937
0,984209174921673
0,987400268381572
0,985060678334081
0,985161941002595
0,985032532457685
0,989583452771923
0,989565465242194
0,991244783088416
0,995263276726314
0,984322574159508
0,989264802770219
0,989392156831658
0,994725454585334
0,997524044822981
0,98815258943141
0,984272777232003
0,986329209746928
0,992019218563834
0,984633281988782
0,982805179066533
0,98594204190713
0,989509666451015
1,00100701795742
1,01013814401794
1,01241261351289
1,01849153162901
1,01303166781695
1,01293597527188
1,0207615294475
1,02376177893102
1,01965282817241
1,02431183240261
1,03339007639903
1,03864841982261
1,03517110662924
1,02009803940602
1,01832082370931
1,0349199824141
1,03972239083325
1,04245800874664
1,04711991194896
1,03870580050368
1,03264559264057
1,03337469487113
1,02987674505253
1,02954479261468
1,03326490794955
1,03521145183001
1,03573591711401
1,03570162209007
1,02981717794956
1,0213505030106
1,01752232899332
1,01462607890789
1,01720173515385
1,01570939741641
1,01259896800263
1,00822355655876
1,00879763084575
1,01107952704028
1,00430902614683
0,999469169109283
0,997451327133309
0,994726203535425
0,996043804257624
0,99623465609263
0,997939802793736
1,00098312173583
0,99891301923641
1,00005722836246
1,00005722836246
0,997736773903819
0,996901389305883
0,995520471914064
0,994382325868677
0,992877902866208
0,992600030223655
0,992600030223655
0,998034082584357
0,998877414901348
0,995430288870095
0,992445036261455
0,994064555247797
0,992907880923502
0,992907880923502
0,989324395736808
0,989351590689579
0,987405190385386
0,984299309153471
0,992603662092781
0,995102014870837
0,995102014870837
0,989974529975393
0,99518582686853
0,996388809652136
1,00183608439704
1,00312787818902
0,993600769927238
0,988223021387379
0,995472279875236
1,00367679060542
1,00904706034952
1,01274967292021
1,01614166827269
1,01405211897614
1,00891914443131
1,00888726823169
1,00669966226278
1,00585120669013
1,00585120669013
1,0142811641749
1,01087843482785
1,00995644460541
1,01607626682253
1,01884666657942
1,01574690253035
1,01574690253035
1,01358438227905
1,02015152796043
1,02308476188437
1,02406894787412
1,02257831484928
1,02252067949749
1,02252067949749
1,0283976419654
1,02803835045197
1,02021510476958
1,01697266433272
1,01594136149681
1,01633058598076
1,01633058598076
1,01924617732911
1,02283452229576
1,01987782111388
1,01901671232615
1,0189775561807
1,01854145227379
1,01854145227379
1,02440410483363
1,02216606282932
1,01727726800514
1,01727726800514
1,01744263720369
1,0215441400155
1,0215441400155
1,01953001427128
1,01972894437689
1,02201572394949
1,02201572394949
1,02363261475981
1,01896822816023
1,01479141206457
1,01253340191818
1,01488119994411
1,00910232385026
1,00910232385026
1,00300441674003
1,008105411155
1,00489357147909
1,00274656319531
1,00555079931349
1,01244826534495
1,01244826534495
1,02372036220835
1,02954200497114
1,02890620563781
1,02436511557159
1,0222573844194
1,01779528884742
1,01779528884742
1,00367109154344
0,996429119405891
0,991980750821305
0,991980750821305
0,975669723830764
0,970153694009356
0,970153694009356
0,971874709003172
0,969146397609773
0,96739205082531
0,96739205082531
0,95402520931053
0,949864874600593
0,949864874600593
0,946095650555482
0,92460799801862
0,896731537306456
0,896731537306456
0,851042472500638
0,843777909168046
0,843777909168046
0,864404934044224
0,872874527065603
0,881982278733536
0,881982278733536
0,89790370307734
0,906524996897493
0,906524996897493
0,921929482118887
0,925307116583462
0,93501497848965
0,93501497848965
0,957220423935887
0,966010755633704
0,977936224914488
0,986634146986612
0,994388726806574
0,994388726806574
1,00022946367321
1,00561287780139
1,01895715807879
1,01895715807879
1,02545629355912
1,02768748654443
1,02942237201258
1,03306466883734
1,03144557297029
1,03450612854637
1,04225026265288
1,04225026265288
1,04617141998814
1,04861196350223
1,05054542500551
1,0504257850986
1,05187346672497
1,05471640264101
1,05160094142217
1,054428119883
1,05472015719811
1,05244725758586
1,04899177308499
1,04454212456942
1,04433638737717
1,04587606340331
1,04612552784071
1,04576032148863
1,04333878007098
1,03990598132716
1,03852226264053
1,03908014127881
1,0385284829989
1,0323783172849
1,02973385881984
1,02723806880392
1,02274870325022
1,02052234664411
1,01786394965143
1,01419653420824
1,0095069390549
1,00548620080039
1,00064238367161
0,995344859835022
0,993700367314011
0,9907752822916
0,989722127670186
0,987301255949773
0,987436873931696
0,985578961829036
0,984070998454888
0,984060836534002
0,981562071394367
0,982775528795869
0,982840378698393
0,981584178764104
0,98045682209876
0,978567161721667
0,97837714609449
0,97998192330267
0,98365303842361
0,983791207523222
0,985790494983594
0,987640309019432
0,987947701044949
0,989227916104272
0,988319912781282
0,992558058755255
0,994439389807142
0,994560732182806
0,997625946936025
0,999651304205621
1,0018933376363
1,00350196312713
1,00302049331008
1,0087333245214
1,00882474692089
1,01014666756863
1,01491494224886
1,01859539563067
1,02286787514322
1,02704905919824
1,03109032097096
1,0352605275968
1,03768014821524
1,04088841380813
1,04234818558867
1,04616515426581
1,05045689583152
1,05135001307842
1,05464668017303
1,05644451818352
1,05751990525001
1,05821021068595
1,06025105045928
1,06052546409787
1,0623016520744
1,0618451582034
1,06001481593419
1,0583388965733
1,05796764600814
1,06153866627646
1,05503661547834
1,05364636382422
1,04878392436193
1,04808152831733
1,04418499318847
1,0421547917656
1,03862974153449
1,03462142351683
1,03177199516172
1,02547531418362
1,02393676562569
1,02098528882644
1,01776108198339
1,01431027304272
1,00912063699044
1,00284376151024
0,996825696899915
0,993061790625337
0,987705431796343
0,981491095221959
0,975893897921285
0,971417016527917
0,966104885610253
0,96127171496929
0,956848755028714
0,954645332047457
0,955620107574134
0,950994437418011
0,949940687622127
0,949311271396269
0,948488745320681
0,948100474633359
0,951320708278759
0,953157515838804
0,952221618112086
0,953118271779531
0,953665481182998
0,956313928582032
0,957547722048358
0,959777880553621
0,960716055866665
0,962773540351001
0,962236862731833
0,96558045237049
0,967355022729504
0,970320596504063
0,973752540433143
0,975838475363623
0,978752088120378
0,980912167321825
0,98293399574946
0,988289016431934
0,99087325122843
0,993741545875989
0,998934126957329
1,00511406815346
1,00798518838324
1,01182900235168
1,01597117085083
1,01922014795627
1,02420848463582
1,02632110472308
1,03158636574937
1,03551496850601
1,0361303248144
1,03829705768629
1,0422510494118
1,04426235209357
1,04447570579693
1,04604429160528
1,04703514267669
1,04698703430367
1,04627939863117
1,04628866953628
1,04539395444971
1,0455024581511
1,04593476852048
1,04507022730532
1,04466783716165
1,04291707724056
1,04135907832025
1,03763186631869
1,03567802429133
1,03341626172613
1,02949838756552
1,02594683585457
1,0183892183247
1,01359563929607
1,00467780407452
0,999390644342842
0,994136429269142
0,993901131903974
0,995823297578441
0,997637213620262
0,992549555437914
0,990414367827931
0,98667221000695
0,987566205375619
0,986069906243974
0,985104877665317
0,986252721162279
0,988040014371888
0,985700410875434
0,979206954632166
0,971486186211621
0,968356556233292
0,967201954092319
0,96636089014405
0,967637659457299
0,967067143480741
0,964261629434667
0,961024214054984
0,963296288791771
0,968523964597676
0,970245839980775
0,969076317944051
0,969354604878937
0,96817782457563
0,971885944954448
0,972833192279129
0,963802941477147
0,956911558086744
0,963227252521439
0,971604821931221
0,976585613246478
0,970591227036387
0,980199744949977
0,990530701190024
0,995984824181574
0,998691874403712
0,999075267434841
1,00081895465664
1,00008434144326
1,00127060278428
1,00124255802478
1,00138586968261
1,00424722055876
0,998427618808695
1,00263130312194
1,00477282009417
1,00896402810011
1,01223124828272
1,01276558985779
1,01125144746497
1,00921466992905
1,00794143679085
1,00864283569557
1,0017917847537
1,00196863224354
1,00662132403402
1,01329008679647
1,01347131187814
1,0108102640951
1,00562960875265
0,999775384774
0,994859055344022
0,993820436497459
0,994512146733261
0,999294195920301
1,00602545693437
1,00849742191044
1,0099708213607
1,00610049696837
1,00417860463167
1,00252659316349
1,00014161997189
0,996307703473179
0,995210841982743
0,993565146329117
0,993679978665164
0,993987877189657
0,993120002819397
0,992086462965804
0,992086462965804
0,990968188187694
0,979620155978837
0,97534027395571
0,982740789832192
0,984574314107371
0,983509969446167
0,985504388625439
0,985857241186573
0,982596183587134
0,98191344832424
0,979724915473726
0,977464812665909
0,976491326126351
0,974994692293245
0,973086789551682
0,969427934402553
0,965823120452187
0,959801344029065
0,956192334208971
0,963307427564015
0,973593616454011
0,981690653923118
0,982269927260323
0,98216533231427
0,975524095038149
0,972731951772943
0,966541245886589
0,95959667569245
0,961728298429447
0,964334884778104
0,969200629384856
0,969200629384856
0,976785022407694
0,982592331539383
0,988858154640998
0,996275694775297
1,00268126540791
1,00616594058833
1,00616594058833
0,999777580264731
0,993165132291705
0,987761312261216
0,97985891841632
0,974647797924973
0,969329892245153
0,969329892245153
0,973214190196588
0,972565540207959
0,975992812473535
0,978854044278308
0,983670483444532
0,984999340101302
0,984999340101302
0,988500647445413
0,990652582896749
0,992195353748444
0,991154700336935
0,988306273378855
0,991141493430681
0,991141493430681
0,988879133160368
0,989558234769435
0,991454194605076
0,991345081190198
0,994725690831397
1,00112709482862
1,00329988537825
1,00736806083973
1,00795238974864
1,00909097211302
1,00909097211302
1,01015307255881
1,01051831255054
1,01322576457569
1,01351326582339
1,01381993470241
1,0122513917007
1,0122513917007
1,01001294051116
1,00919976218784
1,00869851789323
1,0118419837109
0,997403659508025
0,999691837517942
0,999691837517942
1,01386514882404
1,01386806340865
1,01420592090561
1,00661379386535
0,9997992648527
0,99307985580214
0,99307985580214
0,981056491747545
0,983308440927871
0,984909523763477
0,98600157200686
0,9875442572361
0,983937259178653
0,983937259178653
0,982948004728633
0,989363350847402
1,00308289787036
1,00308289787036
1,02468424892744
1,02515847067661
1,02515847067661
1,02375980092989
1,02734586191798
1,02611791232782
1,02611791232782
1,02465649366019
1,02115696638666
1,02115696638666
1,01916328917402
1,01818597024316
1,01893681845343
1,01893681845343
1,0202202507302
1,0220611625534
1,02185929070494
1,02456208694251
1,02656652000735
1,02843665337249
1,02843665337249
1,03106366922708
1,03534363377576
1,03655421951773
1,03865246353147
1,04200098848322
1,04611801915463
1,04611801915463
1,05037549000346
1,05258871835109
1,05533593229834
1,05533593229834
1,06104700178644
1,06661148034324
1,06661148034324
1,07440611967728
1,07448764069206
1,07556315016832
1,07556315016832
1,07926246112797
1,07843761525644
1,07843761525644
1,08317135763461
1,08489264906718
1,08403020714369
1,08403020714369
1,07716586002342
1,08140843810283
1,08140843810283
1,08480978516973
1,08834124244191
1,08575040870358
1,08575040870358
1,07470739273534
1,07470739273534
1,05709630119493
1,04430389255235
1,04430389255235
1,03632041377173
1,03231949511767
1,02513988313791
1,02323684452819
1,01777917545998
0,995584476576448
0,995584476576448
0,984525779246029
0,966602079451519
0,953473214096757
0,938244051406669
0,914390824538392
0,882498118978165
0,834642138883486
0,834642138883486
0,825847964216175
0,825766764891879
0,820127410833219
0,819551493196126
0,82116813138358
0,826435006518964
0,825680537496192
0,818362444152956
0,820145822399895
0,806597501855789
0,803180490300904
0,80221012833297
0,809006847931462
0,829350318020075
0,846508859965447
0,864314283116969
0,902424988572457
0,936064447567581
0,965495939918962
0,992916416421846
1,0203820607988
1,03934711237392
1,0508490424414
1,05604337505616
1,05279256741297
1,04167104692412
1,02453333767135
1,0099419636791
0,996696277709514
0,989894065039285
0,986960941476409
0,989492410279129
0,990253755357686
0,987987191212518
0,98594179341379
0,978640046186543
0,974614657185085
0,968685753998685
0,968131241103188
0,966558151380454
0,972749716011267
0,978796883934558
0,986570068469544
0,993881894391884
0,997400852215397
0,994956431206915
0,984235759358498
0,9714529582023
0,961368789799211
0,957760982709152
0,962326644128697
0,967111167343238
0,971198362848703
0,973322464551189
0,972420001851052
0,97504628608082
0,980525252097058
0,991819504748722
1,00353480756773
1,0117878236073
1,01356963746947
1,01849507608039
1,01628790212223
1,01559910397755
1,01275341520036
1,00592612551817
0,997250715717968
0,985350171258929
0,973032332453552
0,963990155551394
0,954767683784909
0,95066156438556
0,948887364232447
0,950019652428306
0,946182572234344
0,945923109983047
0,951612888731547
0,962268372129106
0,97049134978113
0,978316543865021
0,988968159244776
1,00162465524766
1,00671476595906
1,00688948748112
1,01051232550623
1,01698115026779
1,01744994962897
1,01732711553364
1,01460668734244
1,01348279215781
1,00789561463477
1,00379110376612
1,00368569283417
0,999901440142977
0,996313790931351
0,996755316012912
1,00273135983672
0,997105480879531
0,993824722976844
0,992528997057517
0,981494584804216
0,983392444551004
0,985548380344669
0,98597755045437
0,978647617889095
0,977409463837956
0,979120978224857
0,974806001212549
0,969115117001071
0,956829420534298
0,942127990243364
0,938622421424078
0,948840871800957
0,951553214486715
0,955652965254647
0,955660551660473
0,969378610244728
0,994090478779472
1,00842742921838
1,00801194437368
1,00104396007368
1,00690419603853
1,0101282393835
1,01221449307941
1,00587485305082
0,995455604233559
0,979987989722323
0,975106814661861
0,99596622934716
1,01781047351656
1,02952474958109
1,03222643349219
1,02080472667401
1,01822591304681
1,02790447999802
1,02460795429276
1,02433444733642
1,02668329099095
1,03413553270352
1,02029194841477
1,01603304080133
1,01865393534802
1,03029773366731
1,02623045170176
1,02511245724555
1,03748955657394
1,04131267638496
1,04112578971035
1,03882511040117
1,03808647038674
1,0339750238763
1,02385722149136
1,01596180046299
1,01972283489191
1,02485914154092
1,02191493775167
1,01183028715294
1,01097398581764
1,01263153219718
1,00779350067363
0,996865667981399
0,992601093088256
0,997039497713105
1,00337613087017
1,00042416004413
1,00497463649587
1,00736767865561
1,00673653951766
1,00938503060032
1,00906175727752
1,00234552924628
0,997624724032038
0,993501087065334
0,98717603293435
0,983054316912346
0,983846786852506
0,983098046992262
0,987085173629915
0,991597705725462
0,993767784746517
0,985965039948172
0,988975419310308
0,998989018958667
0,991491780097042
0,989583008140298
1,00098959535052
0,997833347809142
0,995690338408483
0,984290150311381
0,979562489073566
0,980630261617497
0,980587833903725
0,989141637987199
1,00450387256595
1,00396085083035
0,998572956773815
1,00055923362887
1,00841521210263
1,00967465056819
0,996835984502967
0,995649140008668
1,0055940632283
1,00470283168706
1,00467901839344
1,00144388759431
1,00037815849808
0,994954792942875
0,989434949857746
0,988555092040904
0,99238168564318
1,0020625030406
0,995498076341687
0,985493505813204
0,994523388362486
1,00263134800384
0,992891212570642
1,00829370225148
1,00318143922224
0,996204823316972
1,00117903493831
1,00725278356528
1,00917540100817
1,00593417776711
0,998790218214015
1,0039178153614
1,00718565319409
1,00650985588816
0,999688006329975
0,988983275894997
0,995726071768737
0,989565283344156
1,00581223893926
1,00534560724161
0,998185919556072
1,01701262037401
1,01792074347662
1,01805136903793
1,02845671274974
1,0291821850382
1,02626355776672
1,0260298484937
1,0151171360981
1,01188491934607
1,00815866310814
1,00411625820918
1,0099866236738
1,01922879668895
1,0053287472265
1,01291406348219
1,01451939853312
1,00920601464716
1,00629280530072
1,01435175851378
1,01432622957311
1,01730091909916
1,01481549554587
1,00881708946667
1,01888312381745
1,01847451612694
1,01126007040721
1,01957851585839
1,02775949034781
1,03442597608529
1,02602076977028
1,02086830198611
1,01634884267165
1,01505820522766
1,01660542493142
1,01660542493142
1,01790895958332
1,01315774191386
1,00744487690394
1,00063665733372
0,997941526343102
0,995101673197267
0,995101673197267
0,98211806316756
0,980559376070618
0,984082232336302
0,982422765412121
0,982040762901419
0,989066939089564
0,99159453407126
0,986791001175021
0,984226056350877
0,977290243479387
0,972844905419153
0,965201813094029
0,955860272215558
0,934718615413216
0,914521218999319
0,897887014050209
0,886233044971806
0,881117801431795
0,87980499543933
0,884563819065646
0,891613335476764
0,898938585221482
0,906852656168575
0,914221220493158
0,914221220493158
0,923366633575201
0,924396500426089
0,930602428537558
0,936812409183397
0,948927489326766
0,962329205625601
0,962329205625601
0,990271210325737
1,00313233922549
1,01445403050114
1,02233349744592
1,03041454279334
1,03867752936125
1,03867752936125
1,04801655044183
1,05224356020838
1,05366496098143
1,05428281784349
1,05252919674468
1,05657669858842
1,05657669858842
1,05810824115494
1,0611269198357
1,05938686984501
1,0581385070018
1,0578448184871
1,05804428073687
1,05804428073687
1,05552667896174
1,0530968901293
1,05055166936234
1,04912882431091
1,04743296205533
1,04696053889342
1,04685434039316
1,04595427242303
1,04319321796108
1,04494063946236
1,04494063946236
1,04064823547633
1,04325535704352
1,04100242554953
1,04037979123011
1,03742923614095
1,03137021481135
1,03137021481135
1,03225690600741
1,02840731716572
1,02371754405207
1,01831851107598
1,01623990277887
1,00937468266249
1,00937468266249
1,00242973319829
1,00159794328862
0,999965069389926
0,997559466899092
0,997140616964328
0,995500693118794
0,995500693118794
0,997056186982459
0,997893701753849
1,00033133011018
1,0004207414883
1,00078529665458
1,00180220602672
1,00180220602672
1,00405974921814
1,00422262472024
1,00886769201913
1,00886769201913
1,00885192669688
1,01053020736641
1,01053020736641
1,01229289239824
1,01225956157499
1,01324868122293
1,01324868122293
1,01303400732651
1,01450730406439
1,01450730406439
1,01627037248953
1,01762284762087
1,02047732948851
1,02047732948851
1,02445062838577
1,02861642024615
1,02861642024615
1,03031556816346
1,02976661919097
1,03000364077026
1,03000364077026
1,03167931548519
1,03424076017144
1,03577176540008
1,03635164398963
1,03590894387489
1,03945937390549
1,03945937390549
1,03852358182181
1,03584926992299
1,0330193076608
1,0330193076608
1,03174518656498
1,03145261161141
1,03145261161141
1,03051341573024
1,03067549209244
1,02720016549843
1,02720016549843
1,02260356932684
1,02257171386656
1,02257171386656
1,01508851338196
1,01283167900693
1,01249718024299
1,01249718024299
1,00485773122368
1,00485773122368
1,00043045735323
0,997389011369185
0,990911953707291
0,990911953707291
0,987834728079551
0,985126494415819
0,982422724696452
0,979546446065729
0,976837483924527
0,971699284758407
0,965298560032076
0,965298560032076
0,96025397161376
0,956523209336815
0,951888044887633
0,946310467024433
0,943769055436763
0,940504407219871
0,937321769724783
0,933526089619353
0,935631193366275
0,931783848325351
0,926636142183112
0,923315704404512
0,923560837194822
0,920504801725662
0,92155224485647
0,920771486309171
0,927218361552445
0,930616285049859
0,92979577327497
0,927984719701785
0,930807488152088
0,932605007492454
0,933906665572101
0,937429853375707
0,942183904553671
0,945986881515806
0,949758353477346
0,953069262960463
0,95595128536971
0,957494971266168
0,960402566635471
0,965895988189205
0,972820502456645
0,981695095230693
0,992061762190238
0,996371481928302
1,00453694805119
1,00685508391228
1,01034632676127
1,01473449729474
1,01904854643928
1,02423592008873
1,0257085794708
1,03016851534106
1,0313062881608
1,03511211470063
1,04367859995307
1,05104064145969
1,05371175375432
1,05254971379028
1,05091963536704
1,0493632640797
1,04972431618973
1,05015940218616
1,04865070447695
1,04756993561289
1,04549019125002
1,04573382846688
1,0474544667908
1,04690733114254
1,04507873866039
1,04191695446422
1,03904173640908
1,03456777931656
1,03132683956154
1,02628055618335
1,02500299511758
1,0211789020539
1,01749530220046
1,01297459494303
1,00604833382895
1,00228052460377
1,00112674022823
1,00133141866217
0,99931066741029
0,997179367014781
0,992262001691086
0,991439251795086
0,987668340081831
0,98253849288463
0,980444093255704
0,978391915338634
0,980422306967768
0,981583282253727
0,983777795033004
0,984407568032672
0,98422416653931
0,984945998519716
0,983401677850918
0,983639456305002
0,982815694827876
0,982699592958092
0,985397533993261
0,986148781878272
0,988426355375048
0,985882645145963
0,991210855469208
0,990319473705329
0,987971274886067
0,992910595169575
0,99578500189549
0,99514971737925
0,995881614450232
0,992607021937685
0,994078633710634
0,996700782582215
0,993439202971173
0,993699808795393
0,994045471796939
0,98940243581669
0,998358978524258
1,0030050149426
1,00994798380907
1,01186007431858
1,01431878618115
1,01297220593657
1,01222507378547
1,00354151882222
1,00293866711779
1,00570951074353
1,00990425288737
1,01330426328917
1,01516318885192
1,01337356389438
1,01317214233318
1,01076135660204
1,00357005734528
1,00590059648059
1,01425444539327
1,01878050629171
1,02034420662833
1,02066663509689
1,01816184371641
1,01422263828018
1,01317325270656
1,0176157477162
1,03076409522257
1,02531376661001
1,02334739946902
1,01510695495598
1,01524143433964
1,02014509262163
1,02272234746289
1,02327452328298
1,02161263206756
1,01625599137225
1,01242744431391
1,00559874204376
0,99930718500369
0,998187322099414
0,993988239367046
0,995571966258592
0,9913212395586
0,99254995340285
0,99455857544943
0,997786876041171
0,986666711711711
0,985928521749929
0,99008383988428
0,993613058489068
0,993057103091257
0,992158702023018
0,990721782338513
0,984770937832753
0,979970065869361
0,979153869419919
0,98966589816968
0,995392475358338
0,969808104730003
0,943470195607683
0,940609594890462
0,950617778079076
0,963789302700544
0,958842015141181
0,969654680801366
0,975198179858843
0,986681554504796
0,989100146597906
0,985530451076982
0,980251401427205
0,973250353197984
0,967086164723702
0,962797559199233
0,965129633779836
0,963838938827437
0,965565098789305
0,972188685389827
0,97074599149314
0,973318416552363
0,972544101827778
0,96840348512384
0,964526391551833
0,963880698011948
0,962817023114984
0,965004341959144
0,963720649358516
0,966239566567215
0,964934329371694
0,965398176919762
0,963757801524844
0,957177376456422
0,953719843559942
0,953351252162601
0,960245484238275
0,967328868586067
0,974209571909453
0,985349019383487
0,995507212429925
1,00352836531909
1,01270080971628
1,01811834773763
1,02036485631366
1,017221676922
1,01459920658357
1,01366743066945
1,011611694278
1,00326250802071
0,999705126524817
0,997056658370025
0,994414923460021
0,997257208547524
0,999913966299101
1,00721614859969
1,01388980170431
1,01905340880643
1,02079726194774
1,02030598351671
1,01903754592262
1,01337903076786
1,00762306940641
1,00320996805255
0,999204773807651
0,996561026731429
0,995110712433546
0,994313084496025
0,993138449562799
0,992789227379105
0,989832056462105
0,991957362995003
0,995049144514983
1,00152934055873
1,00951228323384
1,01446753028374
1,01309486722616
1,01116909565117
1,00758377815445
1,00662463212461
1,00319151710927
1,00147005446993
1,00031975387873
0,999020250045013
1,00085697779453
1,00123973652667
1,00161105225532
1,00290336523516
1,00456255653891
1,00178135838116
0,999622493744514
0,996696393090694
0,994637225323887
0,995907897347943
1,00129161586423
1,00456279544885
1,00505924700985
1,00550225260812
1,00635491751171
1,00802800556334
1,00771124832464
1,00672961116677
1,00627060972683
1,00907379809407
1,00933231891186
1,00863873116196
1,0142553376739
1,01757646395738
1,02475154549774
1,0343890999039
1,03631110193802
1,0367969183982
1,03661075626293
1,03479174716462
1,03479174716462
1,03919724306794
1,04022273095717
1,03904622130105
1,03866308300623
1,04149978876618
1,04184153785497
1,04184153785497
1,04091456902092
1,04482132922333
1,04728084580976
1,05136436119929
1,05685733190436
1,06535776619875
1,07311789659851
1,07992743274722
1,08575045935979
1,08721846010818
1,0846641185178
1,07871491136444
1,07784044273724
1,07892083120125
1,08412219329742
1,0850744674906
1,09503627793786
1,10128610724008
1,1078768027177
1,11978757360492
1,12165515645407
1,12529091794078
1,12819843112814
1,1349177635406
1,1349177635406
1,12299963490644
1,11255233135345
1,11046112043601
1,10272745499511
1,09106005792532
1,08321024275069
1,08321024275069
1,04740606738743
1,02894515888846
1,01214267768927
1,00127078255585
0,982083117663673
0,966766848831713
0,966766848831713
0,935281492386116
0,906485863099916
0,885493404831453
0,869901057592184
0,850881407717903
0,845247596861417
0,845247596861417
0,82326837058155
0,812837142360018
0,801586358416858
0,790199025562548
0,779647413899386
0,76832072730078
0,76832072730078
0,751168230158864
0,750262107533094
0,753614370882084
0,757799010292307
0,769145168352503
0,789444114551499
0,789444114551499
0,836785241265643
0,859405061656027
0,889637414905646
0,889637414905646
0,959554870760396
0,991334444070214
1,01468648852737
1,03646327961969
1,05124051482047
1,06216693603219
1,06216693603219
1,06570749270144
1,061192678075
1,04767281629333
1,03675479743284
1,0291191233283
1,02452176648425
1,02452176648425
1,00785072803466
1,00469992037424
1,0044723092251
1,00251030917393
0,999657106211925
0,999340597594234
0,999340597594234
0,989584301613561
0,982818035040058
0,977486598373604
0,975516442711244
0,974542631186548
0,975865451791383
0,975865451791383
0,969101485913627
0,971137070654807
0,978355375106612
0,978355375106612
0,979945927079653
0,98127410034098
0,98127410034098
0,98150083036134
0,975207916292726
0,975243631099429
0,975243631099429
0,982195260627947
0,984866457952549
0,984866457952549
0,992397153361496
0,991624792953464
0,993369407622361
0,993369407622361
1,00067613641977
1,00535698137527
1,00535698137527
1,01392962280427
1,00803172073105
0,999824159540066
0,999824159540066
0,979681284908515
0,965079095204119
0,950120387108918
0,940937325224162
0,92971779051495
0,923911435149495
0,923911435149495
0,928150521197936
0,938018224769647
0,94498339667954
0,94498339667954
0,966861701589219
0,984767901588999
0,984767901588999
1,01124185039979
1,01461597661381
1,02364709250796
1,02364709250796
1,03047369204653
1,03123272349165
1,03434285901726
1,03060769451814
1,02822260722083
1,02219239382809
1,02088234875523
1,01408629317233
1,00793667459816
1,00198412163068
0,99353937516336
0,986224371023146
0,976047908660226
0,97043222329022
0,976968459060987
0,963263219478456
0,968827105318591
0,981471609370337
0,987112298576003
0,981664408033621
0,983163307899557
0,981345943080217
0,992579694533391
0,989583392140349
0,973880634369531
0,97393537773304
0,971325414060602
0,970013329805318
0,971872229256501
0,984576553651365
0,991473741457634
0,987224969295246
0,999416414714107
1,01559961599047
1,01138590557709
1,00783977397203
1,00773536208669
0,999637254207745
0,995766930561565
1,00491195136688
1,00775940084923
1,02184665190037
1,02297554711733
1,01921809246108
1,0136017659811
1,02266254942674
1,02349663409315
1,03730229441566
1,03755754539206
1,03866727588771
1,03493952480326
1,0358276690647
1,01987126638611
1,03259811156132
1,0418562760765
1,0394131902184
1,03256064712926
1,03919832082235
1,04759322735497
1,04342335607365
1,03179128703435
1,02287217676501
1,02773958763881
1,02611643588825
1,03454448913519
1,02737882497159
1,02249039604292
1,02327623347755
1,0204854825033
1,01962895702309
1,01674481557567
1,00784507241937
1,00180533538208
0,993327282420049
0,999207736159003
0,989909384741856
0,995245663140513
1,00566386531485
1,00055395156883
0,990865005941778
0,991863604534414
0,995645604620439
0,999390759412954
0,999214261307353
0,99950818405854
0,989505538135083
0,992279118998279
0,999057761092921
1,0051210524111
1,00564062666541
0,998771655584999
0,992553504855028
0,994653085251335
0,995739569365404
0,995869941307599
0,996821960030978
1,0026989029614
1,0061769327509
1,01340820995293
1,01284095987475
1,00040662232914
1,00000925495717
0,99854368957998
1,00463781533446
0,998020926634307
0,992243468106492
0,996954487426583
1,00249644887152
0,998454235305755
0,998353789996312
0,99466235979854
0,995796751350395
1,0019968712526
0,994745399587251
0,99372230024288
1,00197664643444
0,996528765264706
1,00239266258288
0,994996432154407
0,993006435024466
1,00238323010713
1,01179460860394
1,01509401042465
1,01435345910585
1,00715504268211
1,00494117738303
1,01391106611971
1,01848410885983
1,01573446333183
1,00101301689838
1,01342252293898
1,01291097831942
1,01975254841555
1,00631735054107
0,994404364431291
1,01344746780482
1,02139252493838
1,03106262176456
1,03050590003163
1,01910950343915
1,02100283055435
1,02169626112656
1,02337691003853
1,020545682466
1,01516253870993
1,01279889909103
1,01894061161581
1,03255271051894
1,04152651910549
1,03106656429156
1,02868075222588
1,03506611866103
1,027086822036
1,03049200385059
1,0311208900997
1,029533768266
1,0212442117339
1,01525161905805
1,01760993509301
1,03438411144023
1,03541908906491
1,01514074886195
0,997258256421074
0,998608622033677
1,01199987154149
1,01029260118047
1,00974873112077
1,01009793584583
1,01799450882605
1,01620967324662
1,01785844300669
1,0220668275607
1,02216018803317
1,02540874776842
1,02324212188514
1,02090427073257
1,01731790508179
1,0131696106773
1,00950269935251
1,00826997376695
1,00642767251303
0,998649633254827
0,99513064468943
0,987653512118496
0,980109407158201
0,969533857067405
0,970585374915571
0,967397048786071
0,967478263321714
0,960987975991375
0,963141536846999
0,978040776246062
0,986645356751857
0,991166656017039
0,991673177009442
0,98983159678806
0,978360981437833
0,961535547964817
0,943058502957266
0,916881595409135
0,896212229329638
0,888052239454414
0,889944880315629
0,888804967357856
0,884715558809723
0,890627565259464
0,896853109488951
0,906283890400795
0,91797588748289
0,930336611125242
0,940938494270481
0,94776440637956
0,945851077072918
0,942090154921492
0,93549954035264
0,924852463909785
0,920219028275334
0,920410897371386
0,927126231966284
0,938549524532403
0,951888113172972
0,969089149665809
0,985834676809454
1,00037527958262
1,00995077107748
1,01981434584928
1,03049826297767
1,03796171894728
1,04023840056018
1,04834552033192
1,05011977888239
1,05204639156265
1,04942453754427
1,04867091596935
1,04640473049389
1,04346942935574
1,03955046534548
1,03822502859448
1,03543551223628
1,03485377711056
1,0382730902802
1,04011761354185
1,03956201354224
1,03984859474829
1,04247691581157
1,04342117095639
1,04717615041597
1,04700988534015
1,04918785257932
1,05059721111376
1,04793800389145
1,04935586909304
1,04624478015424
1,04418317358594
1,03956570739901
1,03328239121743
1,02807330964285
1,02388537444384
1,01993938055161
1,01744572828235
1,01442991872283
1,00985984176023
1,00748792548596
1,00122196340272
0,997009408180284
0,991797953214262
0,991934302259983
0,989323814531926
0,98781786782787
0,98776933036008
0,985295422703262
0,987572594799997
0,995094020683473
0,987137751278919
0,978984989670424
0,969776804218373
0,982138814017652
0,985973082796889
0,99161450675149
0,992708381147253
0,989253562035538
0,987980273082413
0,986636376787315
0,982088595799788
0,983988058870635
0,982113786686655
0,982236743356712
0,984145060445867
0,977978987504333
0,977501989767796
0,979438415623974
0,980805531183425
0,981381617924444
0,98304524310939
0,983980355494966
0,983780244770142
0,987015405148268
0,986379506072587
0,988970828690109
0,991851092654538
0,9957339855604
0,998723555344521
0,998723555344521
1,00066518376528
1,00337690326218
1,00634408628461
1,01094044334966
1,01208044146698
1,01698615034817
1,01698615034817
1,02198802830562
1,02415159522407
1,02818884452225
1,03007185186277
1,03401963714429
1,03552238025066
1,03552238025066
1,04003594649416
1,03976526197022
1,04234664579496
1,04212328445343
1,04351962607322
1,04262616023194
1,04259726164996
1,04056539919411
1,04027153186079
1,03930021649185
1,03810667563599
1,03783741019487
1,03689788311096
1,03576760907068
1,03390924650087
1,03169636521605
1,02781941020784
1,02677634370879
1,02610672934154
1,0269564255605
1,02440904915956
1,02216852328762
1,02147102259438
1,01993657645954
1,01993657645954
1,01753764549524
1,01481033203254
1,01570854087184
1,01470831769529
1,013318360635
1,01137835155791
1,01137835155791
1,00856755847092
1,00613701850195
1,00480305532975
1,00193088583994
1,00312498722741
1,00053190353931
1,00053190353931
1,00133423990194
1,00170950379838
0,998577938871073
0,998536454016577
0,997351242040636
0,995628670740251
0,995628670740251
0,995187746106231
0,996338802817596
0,994781961034678
0,995716214591286
0,996144050827991
0,996947847181586
0,996947847181586
0,999646277440175
1,00216017681806
1,00337410769862
1,00337410769862
1,00469400316713
1,00458657665728
1,00458657665728
1,00670258269262
1,00898597116115
1,0098631887538
1,0098631887538
1,01086635120574
1,0148242113785
1,01445911696825
1,01744895695067
1,0165787229723
1,01640434867232
1,01640434867232
1,013546096633
1,012579310474
1,01309932879259
1,01117625071003
1,01021847637033
1,01188966295738
1,01188966295738
1,0099807275389
1,01226024815756
1,01146762676815
1,01180196678994
1,0097554307851
1,00997816313027
1,00997816313027
1,0084143493624
1,00948244660321
1,00951975215941
1,00951975215941
1,00960156002257
1,00835228962898
1,00835228962898
1,00707418793255
1,00569811573852
1,00800653271693
1,00800653271693
1,00451033842365
1,00100924071659
1,00100924071659
0,997320520193985
0,996425250583304
0,995340142865744
0,995340142865744
0,992760258068382
0,993396003615879
0,991328225160567
0,988742256606847
0,98801875488272
0,984323615484257
0,984323615484257
0,983965405895959
0,983737597126388
0,983737597126388
0,983135758682391
0,981551674645813
0,985412862712883
0,985412862712883
0,990272164609306
0,991064740569454
0,990652512236253
0,990652512236253
0,983546694366871
0,983546694366871
0,981690832186998
0,981930165541318
0,979743665455409
0,979102701456798
0,981166601551439
0,984787510075143
0,98904024690606
0,98904024690606
0,990427655106621
0,994074051567588
0,997744145560374
0,997637379011031
0,997950504784681
1,00106857906939
1,00292171678551
1,00120981817
0,998192912216872
1,00167424345443
1,00363669721668
1,00454815215598
1,00348802185178
1,00721027596029
1,01055371455455
1,01140034605491
1,01155933587704
1,00939430353059
1,01003273709321
1,00987098185857
1,00749249624997
1,00689066933804
1,00557617811879
1,00242183735192
0,999428101466033
0,997021494251754
0,99151110432511
0,99133753585749
0,987587980890817
0,986684067977182
0,985885038937096
0,986055211435952
0,987712367038097
0,984973431113753
0,984817109924477
0,986983535830259
0,985782110813541
0,986512224962266
0,985343219391091
0,985069434100967
0,982324050402921
0,98010447402305
0,979905918953447
0,978433119840084
0,976394720387201
0,974082244987557
0,972334824018969
0,972001445472176
0,971551094899285
0,971283871996236
0,970825231439727
0,972996906469902
0,973071040572064
0,97225690534961
0,96848022695355
0,965398498030736
0,967515524423252
0,967581443600486
0,965503609521994
0,963964402869733
0,964504354578039
0,962633138843661
0,961205898858304
0,961801195674033
0,96162648154052
0,964634770262818
0,965513707826046
0,968270137926395
0,968882299353229
0,97055232728586
0,971597910660578
0,973940378051963
0,973288312885755
0,972409928990855
0,975606606168695
0,97838298227228
0,98016897012709
0,982498956742449
0,985789784893311
0,98786017735305
0,98980293998351
0,99352255132936
0,993027240311161
0,996253040145926
1,00001544988065
1,00219544002156
1,00500067164157
1,00769115308213
1,00836923296975
1,01145276211991
1,01321518444998
1,01731213007611
1,01895262402135
1,01930997248138
1,01797656161623
1,02138122657507
1,02152428752331
1,02271714075789
1,02534691202539
1,02380108907932
1,02508254301788
1,024163395167
1,025424955811
1,0255106045283
1,0258485804445
1,02532970794764
1,02400078613251
1,02950822240524
1,0242088947085
1,01945099931287
1,02209472652979
1,02591667302954
1,02442020187031
1,02351870525164
1,02355518170737
1,02303190566082
1,02135056665182
1,02028832199531
1,01279887934377
1,01484604743774
1,01615920012565
1,01664654133086
1,0149691522406
1,01605014147925
1,01276147241095
1,01109776480813
1,00878753957412
1,00665831839806
1,00608051864649
1,0056638106246
1,00519289193667
1,00177389664535
1,00160645964371
1,00108651474286
1,00001163993226
0,999868991418376
1,0005059669987
1,00004645392102
0,998328377839677
1,00025177830384
1,00037248062909
1,00366122272408
1,00413284977636
0,992917640089046
0,983091989592022
0,98055232394809
0,97745712949469
0,977230658544849
0,978221825559009
0,980807855800513
0,983741500598608
0,983304556076092
0,985040085478759
0,990030873255981
0,994812530077904
0,988469250912743
0,993262120489853
0,997811810914263
1,00129255465124
1,00238689636288
1,00488519244738
1,00827665350339
1,00705708874919
1,00937562383882
1,01128295743575
1,01229926405189
1,01590631949998
1,01951348200992
1,02141952693298
1,02412275631391
1,02755581843518
1,02611780025492
1,02461626963464
1,02345026259218
1,02398096173708
1,02473603918277
1,02797578278868
1,03032123631419
1,03069232072428
1,031072853876
1,02825533793898
1,02983315638991
1,03092167500737
1,03632928164749
1,03964440555413
1,04514368390188
1,04711205226566
1,05321776475713
1,05882562775936
1,0575095460562
1,0589098922949
1,06432289743292
1,06648680254375
1,06836966448884
1,06917877831539
1,0702715216243
1,06908415945612
1,0667842987221
